Interference and Diffraction Data File Mon, Mar 11, 2024 6:13 PM
Sensor Position (Meters)	Light Intensity (Volts)
0.00000	-0.00856
0.00000	-0.00743
0.00000	-0.01194
-0.00006	-0.00904
-0.00006	-0.00872
-0.00006	-0.00904
-0.00011	-0.01081
-0.00011	-0.01307
-0.00011	-0.00937
-0.00017	-0.00792
-0.00017	-0.00775
-0.00017	-0.01436
-0.00022	-0.01081
-0.00022	-0.00824
-0.00028	-0.01243
-0.00028	-0.00872
-0.00028	-0.01033
-0.00033	-0.01114
-0.00033	-0.01049
-0.00033	-0.00663
-0.00039	-0.00711
-0.00039	-0.01001
-0.00039	-0.01307
-0.00044	-0.01307
-0.00044	-0.01452
-0.00050	-0.01339
-0.00050	-0.01098
-0.00050	-0.00695
-0.00056	-0.00808
-0.00056	-0.00920
-0.00056	-0.00856
-0.00061	-0.00904
-0.00061	-0.01323
-0.00067	-0.00985
-0.00067	-0.01516
-0.00067	-0.01130
-0.00072	-0.00663
-0.00072	-0.00792
-0.00078	-0.01162
-0.00078	-0.00953
-0.00078	-0.01259
-0.00083	-0.00969
-0.00083	-0.00840
-0.00089	-0.00840
-0.00089	-0.01210
-0.00089	-0.01065
-0.00094	-0.01130
-0.00094	-0.01065
-0.00100	-0.01001
-0.00100	-0.01162
-0.00100	-0.00872
-0.00106	-0.00937
-0.00106	-0.01371
-0.00106	-0.00953
-0.00111	-0.01081
-0.00111	-0.01049
-0.00117	-0.01017
-0.00117	-0.01371
-0.00117	-0.01130
-0.00122	-0.01001
-0.00122	-0.00840
-0.00128	-0.00759
-0.00128	-0.00792
-0.00128	-0.01098
-0.00133	-0.01001
-0.00133	-0.00518
-0.00133	-0.00808
-0.00139	-0.00679
-0.00139	-0.01307
-0.00144	-0.01065
-0.00144	-0.01162
-0.00144	-0.01210
-0.00150	-0.01162
-0.00150	-0.01162
-0.00156	-0.01210
-0.00156	-0.01226
-0.00156	-0.01017
-0.00161	-0.00759
-0.00161	-0.01468
-0.00167	-0.01323
-0.00167	-0.00743
-0.00172	-0.00759
-0.00172	-0.00824
-0.00172	-0.01098
-0.00178	-0.00695
-0.00178	-0.01065
-0.00183	-0.01323
-0.00183	-0.01114
-0.00183	-0.01146
-0.00189	-0.01098
-0.00189	-0.01226
-0.00194	-0.00937
-0.00194	-0.01404
-0.00194	-0.01017
-0.00200	-0.01243
-0.00200	-0.00904
-0.00206	-0.00647
-0.00206	-0.00840
-0.00206	-0.00904
-0.00211	-0.00808
-0.00211	-0.01210
-0.00217	-0.01259
-0.00217	-0.01162
-0.00217	-0.00920
-0.00222	-0.01098
-0.00222	-0.01291
-0.00222	-0.00872
-0.00228	-0.00663
-0.00228	-0.00824
-0.00233	-0.00856
-0.00233	-0.00759
-0.00233	-0.01452
-0.00239	-0.01114
-0.00239	-0.01162
-0.00244	-0.01065
-0.00244	-0.00888
-0.00244	-0.00824
-0.00250	-0.01194
-0.00250	-0.01081
-0.00256	-0.01130
-0.00256	-0.00792
-0.00261	-0.00872
-0.00261	-0.00969
-0.00261	-0.00985
-0.00267	-0.01146
-0.00267	-0.01130
-0.00272	-0.01404
-0.00272	-0.00647
-0.00272	-0.00663
-0.00278	-0.01371
-0.00278	-0.00872
-0.00283	-0.01339
-0.00283	-0.01130
-0.00283	-0.00937
-0.00289	-0.01452
-0.00289	-0.00937
-0.00294	-0.00743
-0.00294	-0.00727
-0.00294	-0.00953
-0.00300	-0.01001
-0.00300	-0.00840
-0.00300	-0.00872
-0.00306	-0.00727
-0.00306	-0.00792
-0.00311	-0.00614
-0.00311	-0.01033
-0.00311	-0.00872
-0.00317	-0.01017
-0.00317	-0.01001
-0.00317	-0.00647
-0.00322	-0.00792
-0.00322	-0.00953
-0.00328	-0.01226
-0.00328	-0.01323
-0.00328	-0.00824
-0.00333	-0.00631
-0.00333	-0.00953
-0.00339	-0.01226
-0.00339	-0.00856
-0.00339	-0.00969
-0.00344	-0.00759
-0.00344	-0.01178
-0.00350	-0.01001
-0.00350	-0.00856
-0.00350	-0.00872
-0.00356	-0.01049
-0.00356	-0.00888
-0.00361	-0.00792
-0.00361	-0.00953
-0.00361	-0.00937
-0.00367	-0.01291
-0.00367	-0.00792
-0.00372	-0.00775
-0.00372	-0.00985
-0.00372	-0.00389
-0.00378	-0.00711
-0.00378	-0.00566
-0.00378	-0.00792
-0.00383	-0.00759
-0.00383	-0.00679
-0.00389	-0.00373
-0.00389	-0.00775
-0.00389	-0.01065
-0.00394	-0.00759
-0.00394	-0.00808
-0.00394	-0.00550
-0.00400	-0.01162
-0.00400	-0.00808
-0.00400	-0.01081
-0.00406	-0.01130
-0.00406	-0.00759
-0.00411	-0.00582
-0.00411	-0.00518
-0.00411	-0.01130
-0.00417	-0.01130
-0.00417	-0.01130
-0.00422	-0.00792
-0.00422	-0.00904
-0.00422	-0.00582
-0.00428	-0.00856
-0.00428	-0.00759
-0.00433	-0.01146
-0.00433	-0.01146
-0.00433	-0.00856
-0.00439	-0.01114
-0.00439	-0.01001
-0.00444	-0.01307
-0.00444	-0.00727
-0.00444	-0.00743
-0.00450	-0.00969
-0.00450	-0.01291
-0.00450	-0.00824
-0.00456	-0.00953
-0.00456	-0.00470
-0.00461	-0.00727
-0.00461	-0.00582
-0.00461	-0.00405
-0.00467	-0.00486
-0.00467	-0.00679
-0.00472	-0.00888
-0.00472	-0.00647
-0.00472	-0.01307
-0.00478	-0.00969
-0.00478	-0.01081
-0.00478	-0.00727
-0.00483	-0.00727
-0.00483	-0.00341
-0.00483	-0.00904
-0.00489	-0.01033
-0.00489	-0.00872
-0.00494	-0.01645
-0.00494	-0.00969
-0.00500	-0.01291
-0.00500	-0.00792
-0.00500	-0.01355
-0.00506	-0.01033
-0.00506	-0.00695
-0.00506	-0.00663
-0.00511	-0.00969
-0.00511	-0.00824
-0.00517	-0.00727
-0.00517	-0.01178
-0.00517	-0.00904
-0.00522	-0.01226
-0.00522	-0.01355
-0.00528	-0.00647
-0.00528	-0.00920
-0.00528	-0.01033
-0.00533	-0.00614
-0.00533	-0.01130
-0.00533	-0.00985
-0.00539	-0.01114
-0.00539	-0.00759
-0.00544	-0.00276
-0.00544	-0.00969
-0.00544	-0.00985
-0.00550	-0.01371
-0.00550	-0.01291
-0.00550	-0.00727
-0.00556	-0.00985
-0.00556	-0.00727
-0.00556	-0.01049
-0.00561	-0.00920
-0.00561	-0.01065
-0.00561	-0.00904
-0.00567	-0.01098
-0.00567	-0.00727
-0.00572	-0.01162
-0.00572	-0.00775
-0.00572	-0.01307
-0.00578	-0.01243
-0.00578	-0.00824
-0.00583	-0.00985
-0.00583	-0.01178
-0.00583	-0.00969
-0.00589	-0.00792
-0.00589	-0.01017
-0.00594	-0.00904
-0.00594	-0.00856
-0.00594	-0.00856
-0.00600	-0.01146
-0.00600	-0.00856
-0.00600	-0.01323
-0.00606	-0.00969
-0.00606	-0.01371
-0.00611	-0.01210
-0.00611	-0.00888
-0.00611	-0.01114
-0.00617	-0.00775
-0.00617	-0.00872
-0.00617	-0.01001
-0.00622	-0.01033
-0.00622	-0.00872
-0.00628	-0.00808
-0.00628	-0.01001
-0.00628	-0.00679
-0.00633	-0.00743
-0.00633	-0.01001
-0.00633	-0.01371
-0.00639	-0.00985
-0.00639	-0.01001
-0.00639	-0.01098
-0.00644	-0.01001
-0.00644	-0.00614
-0.00644	-0.00727
-0.00650	-0.01114
-0.00650	-0.01098
-0.00656	-0.00872
-0.00656	-0.01259
-0.00656	-0.00808
-0.00661	-0.00872
-0.00661	-0.01146
-0.00667	-0.01146
-0.00667	-0.01243
-0.00667	-0.01436
-0.00672	-0.01065
-0.00672	-0.00969
-0.00678	-0.00711
-0.00678	-0.00759
-0.00678	-0.00775
-0.00683	-0.00792
-0.00683	-0.01001
-0.00689	-0.01098
-0.00689	-0.01001
-0.00689	-0.00888
-0.00694	-0.01098
-0.00694	-0.00856
-0.00694	-0.01130
-0.00700	-0.01130
-0.00700	-0.00582
-0.00706	-0.00743
-0.00706	-0.00647
-0.00706	-0.00824
-0.00711	-0.01210
-0.00711	-0.01243
-0.00711	-0.00792
-0.00717	-0.00695
-0.00717	-0.00743
-0.00722	-0.01210
-0.00722	-0.01259
-0.00722	-0.00904
-0.00728	-0.00759
-0.00728	-0.00663
-0.00728	-0.00920
-0.00733	-0.01081
-0.00733	-0.01001
-0.00733	-0.00711
-0.00739	-0.01291
-0.00739	-0.01065
-0.00744	-0.01017
-0.00744	-0.01081
-0.00744	-0.01194
-0.00750	-0.01098
-0.00750	-0.00582
-0.00756	-0.00711
-0.00756	-0.01001
-0.00756	-0.00824
-0.00761	-0.01017
-0.00761	-0.00743
-0.00761	-0.01259
-0.00767	-0.01275
-0.00767	-0.01162
-0.00772	-0.00840
-0.00772	-0.01114
-0.00772	-0.00631
-0.00778	-0.00904
-0.00778	-0.00953
-0.00783	-0.01098
-0.00783	-0.01146
-0.00783	-0.00824
-0.00789	-0.01098
-0.00789	-0.00792
-0.00789	-0.01081
-0.00794	-0.01130
-0.00794	-0.00775
-0.00800	-0.01275
-0.00800	-0.00888
-0.00800	-0.00937
-0.00806	-0.00969
-0.00806	-0.01081
-0.00806	-0.01081
-0.00811	-0.01387
-0.00811	-0.01065
-0.00811	-0.01291
-0.00817	-0.00937
-0.00817	-0.00759
-0.00822	-0.00695
-0.00822	-0.00792
-0.00822	-0.01387
-0.00828	-0.01146
-0.00828	-0.01114
-0.00833	-0.01259
-0.00833	-0.01210
-0.00833	-0.01065
-0.00839	-0.01065
-0.00839	-0.00631
-0.00844	-0.01178
-0.00844	-0.01001
-0.00844	-0.00937
-0.00850	-0.00985
-0.00850	-0.01307
-0.00856	-0.01291
-0.00856	-0.00985
-0.00856	-0.01017
-0.00861	-0.01162
-0.00861	-0.00824
-0.00861	-0.01259
-0.00867	-0.01130
-0.00867	-0.01049
-0.00872	-0.01243
-0.00872	-0.00598
-0.00872	-0.01178
-0.00878	-0.00985
-0.00878	-0.01275
-0.00878	-0.01146
-0.00883	-0.01049
-0.00883	-0.00904
-0.00889	-0.01162
-0.00889	-0.00727
-0.00889	-0.00792
-0.00894	-0.00888
-0.00894	-0.00888
-0.00894	-0.00759
-0.00900	-0.01404
-0.00900	-0.01355
-0.00906	-0.00969
-0.00906	-0.00937
-0.00906	-0.01210
-0.00911	-0.01130
-0.00911	-0.00937
-0.00917	-0.00711
-0.00917	-0.00582
-0.00917	-0.00695
-0.00922	-0.00663
-0.00922	-0.00711
-0.00922	-0.00904
-0.00928	-0.00566
-0.00928	-0.01081
-0.00933	-0.01065
-0.00933	-0.01065
-0.00933	-0.00647
-0.00939	-0.00775
-0.00939	-0.00550
-0.00944	-0.00937
-0.00944	-0.00888
-0.00944	-0.00582
-0.00950	-0.00598
-0.00950	-0.00566
-0.00950	-0.01049
-0.00956	-0.00711
-0.00956	-0.01001
-0.00961	-0.01855
-0.00961	-0.01387
-0.00961	-0.01146
-0.00967	-0.00969
-0.00967	-0.01371
-0.00967	-0.01291
-0.00972	-0.01130
-0.00972	-0.01033
-0.00972	-0.00904
-0.00978	-0.00872
-0.00978	-0.01033
-0.00983	-0.00872
-0.00983	-0.01033
-0.00983	-0.00969
-0.00989	-0.00888
-0.00989	-0.00792
-0.00994	-0.00711
-0.00994	-0.00904
-0.00994	-0.00856
-0.01000	-0.00808
-0.01000	-0.00647
-0.01006	-0.00953
-0.01006	-0.00824
-0.01006	-0.01017
-0.01011	-0.00969
-0.01011	-0.01017
-0.01017	-0.00824
-0.01017	-0.01194
-0.01017	-0.01307
-0.01022	-0.00502
-0.01022	-0.00292
-0.01028	-0.00647
-0.01028	-0.00534
-0.01028	-0.01033
-0.01033	-0.00470
-0.01033	-0.00663
-0.01033	-0.00470
-0.01039	-0.00695
-0.01039	-0.00534
-0.01044	-0.00389
-0.01044	-0.00550
-0.01044	-0.00679
-0.01050	-0.00164
-0.01050	-0.00985
-0.01050	-0.00437
-0.01056	-0.00663
-0.01056	-0.00695
-0.01056	-0.00663
-0.01061	-0.00840
-0.01061	-0.00872
-0.01067	-0.00953
-0.01067	-0.01049
-0.01072	-0.00856
-0.01072	-0.00679
-0.01072	-0.00792
-0.01078	-0.00792
-0.01078	-0.01210
-0.01083	-0.00647
-0.01083	-0.00840
-0.01083	-0.01130
-0.01089	-0.00856
-0.01089	-0.01033
-0.01094	-0.01146
-0.01094	-0.01017
-0.01094	-0.00711
-0.01100	-0.00872
-0.01100	-0.00904
-0.01106	-0.00937
-0.01106	-0.00582
-0.01106	-0.00985
-0.01111	-0.00969
-0.01111	-0.00888
-0.01111	-0.00856
-0.01117	-0.00647
-0.01117	-0.01049
-0.01122	-0.00743
-0.01122	-0.01017
-0.01122	-0.00679
-0.01128	-0.00759
-0.01128	-0.01114
-0.01133	-0.00856
-0.01133	-0.00937
-0.01133	-0.01404
-0.01139	-0.00759
-0.01139	-0.00727
-0.01139	-0.00920
-0.01144	-0.00743
-0.01144	-0.00920
-0.01150	-0.01001
-0.01150	-0.00679
-0.01150	-0.01098
-0.01156	-0.00792
-0.01156	-0.00969
-0.01161	-0.00775
-0.01161	-0.01130
-0.01161	-0.00808
-0.01167	-0.00711
-0.01167	-0.00566
-0.01172	-0.00759
-0.01172	-0.00631
-0.01178	-0.01146
-0.01178	-0.01404
-0.01178	-0.01033
-0.01183	-0.00888
-0.01183	-0.01291
-0.01189	-0.01162
-0.01189	-0.00743
-0.01189	-0.01001
-0.01194	-0.01291
-0.01194	-0.00856
-0.01200	-0.01049
-0.01200	-0.00937
-0.01200	-0.00953
-0.01206	-0.00920
-0.01206	-0.01130
-0.01211	-0.01259
-0.01211	-0.01114
-0.01211	-0.01114
-0.01217	-0.00824
-0.01217	-0.00888
-0.01217	-0.01001
-0.01222	-0.00937
-0.01222	-0.01114
-0.01228	-0.01146
-0.01228	-0.01098
-0.01228	-0.00904
-0.01233	-0.01710
-0.01233	-0.01178
-0.01239	-0.01307
-0.01239	-0.00824
-0.01239	-0.01017
-0.01244	-0.00775
-0.01244	-0.00985
-0.01250	-0.01001
-0.01250	-0.01210
-0.01250	-0.00727
-0.01256	-0.01017
-0.01256	-0.01162
-0.01261	-0.00614
-0.01261	-0.01500
-0.01261	-0.01033
-0.01267	-0.01130
-0.01267	-0.00775
-0.01272	-0.01017
-0.01272	-0.00920
-0.01272	-0.01178
-0.01278	-0.00727
-0.01278	-0.01001
-0.01283	-0.00775
-0.01283	-0.00985
-0.01283	-0.00808
-0.01289	-0.00792
-0.01289	-0.00679
-0.01294	-0.00920
-0.01294	-0.00937
-0.01294	-0.01098
-0.01300	-0.01194
-0.01300	-0.00937
-0.01300	-0.01452
-0.01306	-0.01387
-0.01306	-0.01323
-0.01311	-0.01130
-0.01311	-0.00904
-0.01311	-0.00985
-0.01317	-0.01081
-0.01317	-0.00872
-0.01317	-0.01226
-0.01322	-0.01162
-0.01322	-0.01162
-0.01328	-0.01194
-0.01328	-0.01355
-0.01328	-0.00840
-0.01333	-0.00663
-0.01333	-0.00631
-0.01339	-0.00808
-0.01339	-0.01081
-0.01339	-0.01081
-0.01344	-0.00872
-0.01344	-0.00856
-0.01350	-0.01146
-0.01350	-0.01081
-0.01350	-0.00969
-0.01356	-0.00953
-0.01356	-0.01146
-0.01361	-0.01114
-0.01361	-0.01130
-0.01361	-0.00920
-0.01367	-0.01404
-0.01367	-0.00985
-0.01372	-0.01210
-0.01372	-0.01098
-0.01372	-0.01065
-0.01378	-0.01001
-0.01378	-0.01081
-0.01378	-0.01049
-0.01383	-0.00953
-0.01383	-0.01081
-0.01389	-0.01452
-0.01389	-0.01226
-0.01389	-0.01516
-0.01394	-0.01146
-0.01394	-0.01178
-0.01394	-0.01162
-0.01400	-0.01194
-0.01400	-0.01017
-0.01400	-0.00985
-0.01406	-0.00888
-0.01406	-0.01130
-0.01411	-0.01049
-0.01411	-0.01130
-0.01411	-0.01146
-0.01417	-0.00824
-0.01417	-0.01146
-0.01422	-0.01017
-0.01422	-0.00598
-0.01422	-0.00808
-0.01428	-0.00759
-0.01428	-0.00373
-0.01433	-0.00920
-0.01433	-0.01178
-0.01433	-0.00727
-0.01439	-0.01259
-0.01439	-0.01033
-0.01444	-0.00727
-0.01444	-0.00872
-0.01444	-0.00920
-0.01450	-0.00663
-0.01450	-0.00953
-0.01456	-0.00953
-0.01456	-0.00792
-0.01456	-0.00808
-0.01461	-0.00920
-0.01461	-0.00888
-0.01461	-0.01291
-0.01467	-0.01420
-0.01467	-0.01065
-0.01472	-0.00856
-0.01472	-0.01226
-0.01472	-0.00969
-0.01478	-0.00920
-0.01478	-0.01420
-0.01478	-0.00631
-0.01483	-0.00775
-0.01483	-0.01049
-0.01489	-0.01017
-0.01489	-0.00679
-0.01489	-0.00808
-0.01494	-0.00888
-0.01494	-0.00888
-0.01500	-0.00695
-0.01500	-0.00904
-0.01500	-0.00888
-0.01506	-0.00743
-0.01506	-0.00775
-0.01511	-0.00598
-0.01511	-0.00904
-0.01511	-0.00566
-0.01517	-0.00486
-0.01517	-0.00470
-0.01522	-0.00872
-0.01522	-0.00695
-0.01522	-0.00534
-0.01528	-0.00647
-0.01528	-0.00792
-0.01528	-0.00550
-0.01533	-0.00711
-0.01533	-0.00937
-0.01539	-0.00663
-0.01539	-0.00792
-0.01539	-0.00953
-0.01544	-0.00872
-0.01544	-0.00695
-0.01544	-0.00453
-0.01550	-0.00840
-0.01550	-0.00727
-0.01556	-0.00695
-0.01556	-0.00824
-0.01556	-0.01275
-0.01561	-0.00904
-0.01561	-0.00872
-0.01561	-0.00969
-0.01567	-0.01001
-0.01567	-0.00759
-0.01567	-0.00711
-0.01572	-0.01307
-0.01572	-0.00824
-0.01578	-0.00856
-0.01578	-0.00695
-0.01578	-0.01033
-0.01583	-0.00840
-0.01583	-0.00357
-0.01589	-0.00534
-0.01589	-0.00550
-0.01589	-0.00341
-0.01594	-0.00292
-0.01594	-0.00292
-0.01594	-0.00373
-0.01600	-0.00244
-0.01600	-0.00228
-0.01606	-0.00212
-0.01606	-0.00341
-0.01606	-0.00147
-0.01611	-0.00002
-0.01611	-0.00325
-0.01617	-0.00115
-0.01617	0.00046
-0.01617	-0.00099
-0.01622	-0.00051
-0.01622	-0.00856
-0.01622	-0.00470
-0.01628	-0.00405
-0.01628	-0.00292
-0.01633	-0.00470
-0.01633	-0.00614
-0.01633	-0.00518
-0.01639	-0.00470
-0.01639	-0.00679
-0.01639	-0.00872
-0.01644	-0.00904
-0.01644	-0.00679
-0.01644	-0.00631
-0.01650	-0.01178
-0.01650	-0.01017
-0.01650	-0.00550
-0.01656	-0.00872
-0.01656	-0.00679
-0.01661	-0.00888
-0.01661	-0.00824
-0.01661	-0.00808
-0.01667	-0.01017
-0.01667	-0.01098
-0.01672	-0.00856
-0.01672	-0.00550
-0.01672	-0.00824
-0.01678	-0.00341
-0.01678	-0.00486
-0.01683	0.00400
-0.01683	-0.00663
-0.01683	-0.00131
-0.01689	-0.00228
-0.01689	-0.00131
-0.01689	-0.00292
-0.01694	-0.00405
-0.01694	-0.00035
-0.01700	-0.00373
-0.01700	-0.00389
-0.01700	-0.00019
-0.01706	-0.00502
-0.01706	-0.00486
-0.01706	-0.00099
-0.01711	0.00142
-0.01711	-0.00002
-0.01717	-0.00019
-0.01717	0.00046
-0.01717	-0.00067
-0.01722	0.00094
-0.01722	-0.00244
-0.01722	-0.00341
-0.01728	-0.00486
-0.01728	-0.00502
-0.01728	-0.00099
-0.01733	0.00094
-0.01733	-0.00453
-0.01739	-0.00164
-0.01739	-0.00180
-0.01739	-0.00357
-0.01744	-0.00019
-0.01744	-0.00067
-0.01750	-0.00389
-0.01750	-0.00647
-0.01750	-0.00453
-0.01756	-0.00792
-0.01756	-0.00405
-0.01756	-0.00470
-0.01761	-0.00711
-0.01761	-0.00631
-0.01767	-0.00373
-0.01767	-0.00711
-0.01767	-0.00437
-0.01772	-0.00727
-0.01772	-0.00985
-0.01778	-0.01001
-0.01778	-0.00711
-0.01778	-0.00470
-0.01783	-0.00437
-0.01783	-0.00405
-0.01783	-0.00341
-0.01789	-0.00534
-0.01789	-0.00792
-0.01794	-0.01178
-0.01794	-0.01098
-0.01794	-0.01146
-0.01800	-0.00421
-0.01800	-0.00180
-0.01800	-0.00405
-0.01806	-0.00373
-0.01806	-0.00212
-0.01806	0.00126
-0.01811	-0.00598
-0.01811	-0.00341
-0.01817	-0.00453
-0.01817	-0.00631
-0.01817	-0.00389
-0.01822	-0.00260
-0.01822	-0.00486
-0.01828	-0.00051
-0.01828	-0.00405
-0.01828	-0.00147
-0.01833	-0.00325
-0.01833	-0.00550
-0.01839	-0.00308
-0.01839	-0.00550
-0.01839	-0.00357
-0.01844	-0.00679
-0.01844	-0.00743
-0.01850	-0.00421
-0.01850	-0.00115
-0.01850	-0.00083
-0.01856	-0.00276
-0.01856	-0.00421
-0.01856	-0.00502
-0.01861	-0.00582
-0.01861	-0.00437
-0.01867	-0.00534
-0.01867	-0.00598
-0.01867	-0.00840
-0.01872	-0.00856
-0.01872	-0.00453
-0.01872	-0.00695
-0.01878	-0.00663
-0.01878	-0.00695
-0.01883	-0.00969
-0.01883	-0.00904
-0.01883	-0.01081
-0.01889	-0.01162
-0.01889	-0.00598
-0.01889	-0.01307
-0.01894	-0.00872
-0.01894	-0.00759
-0.01894	-0.00614
-0.01900	-0.00711
-0.01900	-0.00759
-0.01906	-0.00840
-0.01906	-0.00582
-0.01906	-0.00824
-0.01911	-0.01033
-0.01911	-0.00985
-0.01917	-0.00711
-0.01917	-0.00534
-0.01917	-0.00582
-0.01922	-0.00518
-0.01922	-0.00663
-0.01928	-0.00566
-0.01928	-0.00711
-0.01928	-0.00856
-0.01933	-0.00792
-0.01933	-0.01081
-0.01939	-0.00743
-0.01939	-0.00727
-0.01939	-0.00341
-0.01944	-0.00614
-0.01944	-0.00566
-0.01944	-0.01162
-0.01950	-0.00308
-0.01950	-0.00598
-0.01956	-0.00518
-0.01956	-0.00582
-0.01956	-0.00389
-0.01961	-0.00679
-0.01961	-0.00679
-0.01967	-0.00727
-0.01967	-0.00792
-0.01967	-0.00985
-0.01972	-0.00856
-0.01972	-0.00824
-0.01972	-0.00566
-0.01978	-0.00647
-0.01978	-0.00566
-0.01983	-0.00663
-0.01983	-0.01033
-0.01983	-0.00502
-0.01989	-0.00904
-0.01989	-0.00614
-0.01994	-0.01033
-0.01994	-0.01098
-0.01994	-0.00872
-0.02000	-0.00840
-0.02000	-0.00614
-0.02006	-0.00647
-0.02006	-0.00824
-0.02006	-0.00969
-0.02011	-0.00357
-0.02011	-0.00614
-0.02017	-0.00888
-0.02017	-0.01098
-0.02017	-0.01049
-0.02022	-0.00405
-0.02022	-0.00743
-0.02028	-0.00486
-0.02028	-0.00631
-0.02028	-0.00389
-0.02033	-0.00792
-0.02033	-0.00631
-0.02033	-0.01033
-0.02039	-0.00953
-0.02039	-0.00775
-0.02044	-0.00631
-0.02044	-0.00534
-0.02044	-0.00743
-0.02050	-0.00775
-0.02050	-0.00872
-0.02050	-0.00872
-0.02056	-0.00759
-0.02056	-0.01130
-0.02061	-0.00792
-0.02061	-0.00727
-0.02061	-0.00824
-0.02067	-0.00824
-0.02067	-0.00920
-0.02072	-0.00566
-0.02072	-0.00743
-0.02072	-0.01017
-0.02078	-0.01130
-0.02078	-0.00920
-0.02083	-0.01275
-0.02083	-0.00292
-0.02083	-0.00808
-0.02089	-0.00872
-0.02089	-0.01162
-0.02094	-0.00920
-0.02094	-0.00663
-0.02094	-0.00920
-0.02100	-0.00920
-0.02100	-0.00904
-0.02106	-0.01017
-0.02106	-0.00953
-0.02106	-0.00679
-0.02111	-0.01017
-0.02111	-0.00743
-0.02117	-0.00920
-0.02117	-0.00840
-0.02117	-0.00405
-0.02122	-0.00502
-0.02122	-0.00405
-0.02128	-0.00792
-0.02128	-0.00614
-0.02128	-0.01017
-0.02133	-0.00405
-0.02133	-0.00470
-0.02133	-0.00647
-0.02139	-0.00663
-0.02139	-0.00647
-0.02144	-0.00470
-0.02144	-0.00631
-0.02144	-0.00598
-0.02150	-0.00244
-0.02150	-0.00679
-0.02156	-0.00550
-0.02156	-0.00759
-0.02161	-0.00518
-0.02161	-0.00260
-0.02161	-0.00582
-0.02167	-0.00486
-0.02167	-0.00373
-0.02172	-0.00679
-0.02172	-0.00534
-0.02172	-0.00035
-0.02178	-0.00663
-0.02178	-0.00421
-0.02183	-0.00389
-0.02183	-0.00019
-0.02183	-0.00164
-0.02189	-0.00470
-0.02189	-0.00164
-0.02194	-0.00566
-0.02194	-0.00502
-0.02194	-0.00502
-0.02200	-0.00373
-0.02200	-0.00647
-0.02206	-0.00953
-0.02206	-0.00598
-0.02206	-0.00872
-0.02211	-0.00614
-0.02211	-0.00631
-0.02217	-0.00598
-0.02217	-0.00888
-0.02217	-0.00679
-0.02222	-0.00792
-0.02222	-0.00920
-0.02222	-0.00614
-0.02228	-0.00486
-0.02228	-0.00470
-0.02233	-0.00550
-0.02233	-0.00985
-0.02239	-0.00437
-0.02239	-0.00470
-0.02239	-0.00727
-0.02244	-0.00389
-0.02244	-0.00743
-0.02250	-0.00115
-0.02250	-0.00292
-0.02250	-0.00357
-0.02256	-0.00196
-0.02256	-0.00019
-0.02261	-0.00115
-0.02261	0.00110
-0.02261	0.00255
-0.02267	0.00126
-0.02267	0.00320
-0.02272	0.00207
-0.02272	0.00014
-0.02272	-0.00035
-0.02278	0.00126
-0.02278	0.00223
-0.02283	0.00207
-0.02283	0.00545
-0.02283	0.00239
-0.02289	0.00078
-0.02289	0.00191
-0.02294	-0.00212
-0.02294	0.00078
-0.02294	-0.00002
-0.02300	-0.00147
-0.02300	-0.00099
-0.02300	0.00159
-0.02306	-0.00421
-0.02306	-0.00115
-0.02311	0.00030
-0.02311	-0.00598
-0.02311	-0.00260
-0.02317	-0.00502
-0.02317	-0.00534
-0.02317	-0.00470
-0.02322	-0.00647
-0.02322	-0.00566
-0.02328	-0.00566
-0.02328	-0.00373
-0.02333	-0.00260
-0.02333	-0.00518
-0.02333	-0.00325
-0.02339	-0.00244
-0.02339	-0.00486
-0.02344	-0.00775
-0.02344	-0.00808
-0.02344	-0.00389
-0.02350	-0.00212
-0.02350	0.00046
-0.02356	-0.00470
-0.02356	-0.00180
-0.02356	0.00271
-0.02361	0.00271
-0.02361	0.00126
-0.02361	0.00400
-0.02367	0.00126
-0.02367	0.00159
-0.02372	-0.00115
-0.02372	0.00352
-0.02372	-0.00051
-0.02378	0.00674
-0.02378	0.00545
-0.02383	0.00271
-0.02383	0.00626
-0.02383	0.00561
-0.02389	0.00304
-0.02389	0.00304
-0.02389	0.00175
-0.02394	0.00175
-0.02394	0.00159
-0.02394	0.00207
-0.02400	0.00384
-0.02400	0.00287
-0.02406	0.00271
-0.02406	0.00336
-0.02406	-0.00002
-0.02411	0.00207
-0.02411	0.00094
-0.02417	-0.00292
-0.02417	-0.00679
-0.02417	-0.00550
-0.02422	-0.00244
-0.02422	-0.00453
-0.02428	-0.00679
-0.02428	-0.00566
-0.02428	-0.00614
-0.02433	-0.00437
-0.02433	-0.00695
-0.02433	-0.00631
-0.02439	-0.00985
-0.02439	-0.00679
-0.02444	-0.01049
-0.02444	-0.01146
-0.02444	-0.00405
-0.02450	-0.00759
-0.02450	-0.00389
-0.02456	-0.00325
-0.02456	-0.00470
-0.02456	-0.00759
-0.02461	-0.00614
-0.02461	-0.00582
-0.02461	-0.00534
-0.02467	-0.00276
-0.02467	-0.00421
-0.02472	0.00030
-0.02472	-0.00035
-0.02472	-0.00051
-0.02478	0.00110
-0.02478	0.00062
-0.02478	-0.00131
-0.02483	0.00400
-0.02483	-0.00453
-0.02483	-0.00099
-0.02489	-0.00244
-0.02489	-0.00002
-0.02494	0.00336
-0.02494	-0.00099
-0.02500	-0.00019
-0.02500	0.00062
-0.02500	0.00142
-0.02506	0.00400
-0.02506	-0.00292
-0.02506	-0.00260
-0.02511	0.00142
-0.02511	-0.00470
-0.02517	-0.00051
-0.02517	0.00094
-0.02517	-0.00067
-0.02522	-0.00228
-0.02522	-0.00389
-0.02528	-0.00534
-0.02528	-0.00759
-0.02528	-0.00566
-0.02533	-0.00212
-0.02533	-0.01033
-0.02539	-0.00566
-0.02539	-0.00856
-0.02539	-0.00566
-0.02544	-0.00308
-0.02544	-0.00743
-0.02544	-0.00598
-0.02550	-0.00792
-0.02550	-0.00598
-0.02556	-0.00695
-0.02556	-0.00856
-0.02556	-0.00679
-0.02561	-0.00937
-0.02561	-0.00695
-0.02561	-0.01065
-0.02567	-0.00727
-0.02567	-0.00180
-0.02567	-0.00872
-0.02572	-0.00582
-0.02572	-0.00775
-0.02578	-0.00486
-0.02578	-0.00614
-0.02578	-0.00711
-0.02583	-0.00743
-0.02583	-0.00727
-0.02589	-0.00727
-0.02589	-0.00534
-0.02589	-0.00453
-0.02594	-0.00888
-0.02594	-0.00325
-0.02600	-0.00647
-0.02600	-0.00566
-0.02600	-0.00325
-0.02606	-0.00582
-0.02606	-0.00389
-0.02606	-0.00808
-0.02611	-0.01081
-0.02611	-0.01081
-0.02617	-0.00937
-0.02617	-0.00373
-0.02617	-0.00695
-0.02622	-0.01178
-0.02622	-0.00775
-0.02622	-0.00614
-0.02628	-0.00840
-0.02628	-0.00486
-0.02633	-0.00824
-0.02633	-0.00421
-0.02633	-0.00341
-0.02639	-0.00518
-0.02639	-0.00582
-0.02639	-0.00840
-0.02644	-0.00904
-0.02644	-0.00502
-0.02644	-0.00405
-0.02650	-0.00663
-0.02650	-0.00518
-0.02650	-0.00808
-0.02656	-0.01049
-0.02656	-0.00566
-0.02661	-0.01049
-0.02661	-0.01210
-0.02661	-0.00808
-0.02667	-0.00614
-0.02667	-0.00405
-0.02672	-0.00486
-0.02672	-0.00937
-0.02672	-0.00582
-0.02678	-0.01001
-0.02678	-0.01114
-0.02683	-0.01081
-0.02683	-0.00888
-0.02683	-0.00711
-0.02689	-0.00888
-0.02689	-0.00969
-0.02694	-0.00792
-0.02694	-0.01049
-0.02694	-0.00598
-0.02700	-0.01114
-0.02700	-0.00502
-0.02700	-0.00904
-0.02706	-0.00598
-0.02706	-0.00872
-0.02711	-0.00695
-0.02711	-0.00904
-0.02711	-0.00598
-0.02717	-0.00856
-0.02717	-0.00228
-0.02717	-0.00308
-0.02722	-0.00711
-0.02722	-0.00824
-0.02722	-0.00743
-0.02728	-0.00325
-0.02728	-0.00631
-0.02728	-0.00727
-0.02733	-0.00663
-0.02733	-0.00550
-0.02739	-0.00840
-0.02739	-0.00470
-0.02739	-0.00872
-0.02744	-0.00937
-0.02744	-0.00405
-0.02750	-0.00856
-0.02750	-0.00969
-0.02750	-0.00711
-0.02756	-0.00727
-0.02756	-0.00486
-0.02761	-0.00695
-0.02761	-0.00711
-0.02761	-0.01259
-0.02767	-0.00953
-0.02767	-0.01275
-0.02772	-0.00598
-0.02772	-0.00679
-0.02772	-0.00437
-0.02778	-0.00470
-0.02778	-0.00727
-0.02778	-0.00695
-0.02783	-0.00260
-0.02783	-0.00824
-0.02789	-0.00470
-0.02789	-0.00598
-0.02789	-0.00502
-0.02794	-0.00421
-0.02794	-0.00373
-0.02794	-0.00196
-0.02800	-0.00083
-0.02800	-0.00582
-0.02800	-0.00405
-0.02806	-0.00276
-0.02806	-0.00582
-0.02806	-0.00598
-0.02811	-0.00341
-0.02811	-0.00582
-0.02817	-0.00421
-0.02817	-0.00582
-0.02822	-0.00308
-0.02822	-0.00115
-0.02822	-0.00051
-0.02828	-0.00534
-0.02828	-0.00405
-0.02833	-0.00534
-0.02833	-0.00470
-0.02833	-0.00180
-0.02839	-0.00308
-0.02839	-0.00276
-0.02844	-0.00292
-0.02844	-0.00518
-0.02844	-0.00566
-0.02850	-0.00647
-0.02850	-0.00631
-0.02856	-0.00164
-0.02856	-0.00147
-0.02856	-0.00534
-0.02861	-0.00244
-0.02861	-0.00196
-0.02861	-0.00341
-0.02867	0.00159
-0.02867	-0.01130
-0.02872	-0.00792
-0.02872	-0.00824
-0.02872	-0.00486
-0.02878	-0.00663
-0.02878	-0.00308
-0.02878	-0.00727
-0.02883	-0.00631
-0.02883	-0.00453
-0.02883	-0.00582
-0.02889	-0.00856
-0.02889	-0.00920
-0.02894	-0.00598
-0.02894	-0.00325
-0.02894	-0.00453
-0.02900	-0.00067
-0.02900	-0.00373
-0.02906	-0.00373
-0.02906	-0.00099
-0.02906	-0.00051
-0.02911	-0.00325
-0.02911	0.00046
-0.02917	0.00078
-0.02917	0.00030
-0.02922	0.00320
-0.02922	0.00126
-0.02922	0.00255
-0.02928	0.00465
-0.02928	0.00754
-0.02928	-0.00051
-0.02933	0.00384
-0.02933	0.00883
-0.02939	0.00754
-0.02939	0.00722
-0.02939	0.00819
-0.02944	0.00593
-0.02944	0.00465
-0.02950	0.00481
-0.02950	0.00819
-0.02950	-0.00067
-0.02956	0.00448
-0.02956	0.00287
-0.02961	-0.00244
-0.02961	0.00046
-0.02961	0.00287
-0.02967	0.00239
-0.02967	-0.00292
-0.02967	-0.00180
-0.02972	-0.00260
-0.02972	-0.00002
-0.02978	0.00400
-0.02978	-0.00244
-0.02978	-0.00292
-0.02983	-0.00292
-0.02983	-0.00598
-0.02989	-0.00518
-0.02989	-0.00711
-0.02989	-0.00550
-0.02994	-0.00904
-0.02994	-0.00550
-0.03000	-0.00743
-0.03000	-0.00904
-0.03000	-0.00888
-0.03006	-0.00598
-0.03006	-0.00856
-0.03011	-0.00759
-0.03011	-0.00115
-0.03011	-0.00131
-0.03017	-0.00067
-0.03017	0.00094
-0.03017	-0.00325
-0.03022	0.00142
-0.03022	-0.00051
-0.03028	0.00159
-0.03028	0.00722
-0.03028	0.00513
-0.03033	0.00787
-0.03033	0.00545
-0.03039	0.00658
-0.03039	0.00754
-0.03039	0.00642
-0.03044	0.00513
-0.03044	0.00400
-0.03044	0.00883
-0.03050	0.00432
-0.03050	0.00803
-0.03056	0.00899
-0.03056	0.00883
-0.03056	0.00980
-0.03061	0.00819
-0.03061	0.00915
-0.03067	0.01044
-0.03067	0.00497
-0.03067	0.00448
-0.03072	0.00030
-0.03072	0.00046
-0.03078	0.00030
-0.03078	0.00207
-0.03078	0.00014
-0.03083	-0.00002
-0.03083	-0.00470
-0.03089	-0.00099
-0.03089	-0.00308
-0.03089	-0.00389
-0.03094	-0.00518
-0.03094	-0.01049
-0.03100	-0.00888
-0.03100	-0.00663
-0.03100	-0.00502
-0.03106	-0.00582
-0.03106	-0.00453
-0.03111	-0.00566
-0.03111	-0.00647
-0.03111	-0.00759
-0.03117	-0.00808
-0.03117	-0.01114
-0.03122	-0.00792
-0.03122	-0.00518
-0.03122	-0.00131
-0.03128	-0.00115
-0.03128	-0.00276
-0.03128	-0.00357
-0.03133	-0.00115
-0.03133	-0.00196
-0.03139	-0.00083
-0.03139	-0.00099
-0.03139	-0.00067
-0.03144	0.00239
-0.03144	0.00191
-0.03150	0.00336
-0.03150	0.00320
-0.03156	-0.00099
-0.03156	-0.00083
-0.03156	-0.00035
-0.03161	0.00126
-0.03161	-0.00276
-0.03167	-0.00131
-0.03167	-0.00308
-0.03167	-0.00196
-0.03172	-0.00518
-0.03172	-0.00550
-0.03178	0.00271
-0.03178	-0.00308
-0.03183	-0.00244
-0.03183	-0.00437
-0.03183	-0.00244
-0.03189	-0.00502
-0.03189	-0.00470
-0.03194	-0.00164
-0.03194	-0.00647
-0.03194	-0.00373
-0.03200	-0.00969
-0.03200	-0.00792
-0.03206	-0.00792
-0.03206	-0.01162
-0.03206	-0.00937
-0.03211	-0.00937
-0.03211	-0.00759
-0.03211	-0.00598
-0.03217	-0.00953
-0.03217	-0.01098
-0.03217	-0.01017
-0.03222	-0.01065
-0.03222	-0.01114
-0.03228	-0.00888
-0.03228	-0.01194
-0.03228	-0.01307
-0.03233	-0.00775
-0.03233	-0.00743
-0.03239	-0.00695
-0.03239	-0.00679
-0.03239	-0.00759
-0.03244	-0.00647
-0.03244	-0.00872
-0.03250	-0.00872
-0.03250	-0.00631
-0.03256	-0.00695
-0.03256	-0.00614
-0.03256	-0.01033
-0.03261	-0.00421
-0.03261	-0.00614
-0.03267	-0.01017
-0.03267	-0.00550
-0.03267	-0.00743
-0.03272	-0.00727
-0.03272	-0.00743
-0.03278	-0.00824
-0.03278	-0.00920
-0.03278	-0.01130
-0.03283	-0.00824
-0.03283	-0.00872
-0.03283	-0.00953
-0.03289	-0.01146
-0.03289	-0.00759
-0.03294	-0.01210
-0.03294	-0.01371
-0.03294	-0.01049
-0.03300	-0.01065
-0.03300	-0.01178
-0.03306	-0.01001
-0.03306	-0.01033
-0.03306	-0.00856
-0.03311	-0.01226
-0.03311	-0.01275
-0.03311	-0.01275
-0.03317	-0.01065
-0.03317	-0.01130
-0.03322	-0.00969
-0.03322	-0.00759
-0.03322	-0.01339
-0.03328	-0.00824
-0.03328	-0.00872
-0.03333	-0.00888
-0.03333	-0.00920
-0.03333	-0.01355
-0.03339	-0.01114
-0.03339	-0.00985
-0.03344	-0.00920
-0.03344	-0.00808
-0.03344	-0.00856
-0.03350	-0.01194
-0.03350	-0.00614
-0.03356	-0.01259
-0.03356	-0.00937
-0.03356	-0.01098
-0.03361	-0.00888
-0.03361	-0.00872
-0.03367	-0.00840
-0.03367	-0.00486
-0.03367	-0.00486
-0.03372	-0.00904
-0.03372	-0.00969
-0.03378	-0.01049
-0.03378	-0.00679
-0.03378	-0.01033
-0.03383	-0.00389
-0.03383	-0.00969
-0.03383	-0.01243
-0.03389	-0.00969
-0.03389	-0.01001
-0.03389	-0.00824
-0.03394	-0.00711
-0.03394	-0.01243
-0.03394	-0.00775
-0.03400	-0.00711
-0.03400	-0.01275
-0.03406	-0.00904
-0.03406	-0.00679
-0.03411	-0.00743
-0.03411	-0.01098
-0.03411	-0.00904
-0.03417	-0.00953
-0.03417	-0.00953
-0.03422	-0.01049
-0.03422	-0.00743
-0.03422	-0.01065
-0.03428	-0.01130
-0.03428	-0.00937
-0.03433	-0.00904
-0.03433	-0.01017
-0.03433	-0.00824
-0.03439	-0.01033
-0.03439	-0.01307
-0.03439	-0.00937
-0.03444	-0.01194
-0.03444	-0.00953
-0.03450	-0.01033
-0.03450	-0.00824
-0.03450	-0.00550
-0.03456	-0.00775
-0.03456	-0.00792
-0.03461	-0.00614
-0.03461	-0.00679
-0.03461	-0.00695
-0.03467	-0.01081
-0.03467	-0.00389
-0.03467	-0.00228
-0.03472	-0.00373
-0.03472	-0.00115
-0.03472	0.00078
-0.03478	0.00142
-0.03478	-0.00212
-0.03483	0.00110
-0.03483	-0.00002
-0.03483	-0.00035
-0.03489	0.00030
-0.03489	0.00465
-0.03494	0.00352
-0.03494	0.00400
-0.03494	0.00336
-0.03500	0.00545
-0.03500	0.00626
-0.03506	0.00416
-0.03506	0.00432
-0.03506	0.00191
-0.03511	0.00416
-0.03511	0.00191
-0.03517	0.00191
-0.03517	-0.00164
-0.03517	0.00287
-0.03522	-0.00147
-0.03522	0.00062
-0.03528	0.00046
-0.03528	-0.00550
-0.03528	-0.00405
-0.03533	-0.00631
-0.03533	-0.00582
-0.03539	-0.00888
-0.03539	-0.00743
-0.03539	-0.00904
-0.03544	-0.00663
-0.03544	-0.00663
-0.03544	-0.00953
-0.03550	-0.00775
-0.03550	-0.00840
-0.03550	-0.01130
-0.03556	-0.01033
-0.03556	-0.00711
-0.03556	-0.00792
-0.03561	-0.00872
-0.03561	-0.00695
-0.03561	-0.00502
-0.03567	-0.00357
-0.03567	-0.00679
-0.03572	-0.00180
-0.03572	-0.00260
-0.03578	-0.00212
-0.03578	0.00142
-0.03578	0.00448
-0.03583	0.00320
-0.03583	0.00787
-0.03589	0.00706
-0.03589	0.00964
-0.03589	0.00803
-0.03594	0.00980
-0.03594	0.00803
-0.03594	0.01077
-0.03600	0.01044
-0.03600	0.01093
-0.03606	0.01221
-0.03606	0.01527
-0.03606	0.01801
-0.03611	0.01672
-0.03611	0.01898
-0.03617	0.01592
-0.03617	0.01544
-0.03617	0.01383
-0.03622	0.01028
-0.03622	0.01270
-0.03622	0.01254
-0.03628	0.01205
-0.03628	0.00336
-0.03633	0.00690
-0.03633	0.00819
-0.03633	0.00529
-0.03639	0.00690
-0.03639	0.00561
-0.03639	0.00593
-0.03644	0.00593
-0.03644	0.00094
-0.03644	0.00046
-0.03650	-0.00212
-0.03650	-0.00292
-0.03650	-0.00341
-0.03656	-0.00341
-0.03656	-0.00276
-0.03661	-0.00808
-0.03661	-0.00598
-0.03667	-0.00566
-0.03667	-0.00663
-0.03667	-0.00711
-0.03672	-0.00582
-0.03672	-0.00824
-0.03678	-0.00373
-0.03678	-0.00631
-0.03678	-0.00325
-0.03683	-0.00019
-0.03683	-0.00373
-0.03689	0.00062
-0.03689	0.00304
-0.03689	0.00304
-0.03694	0.00368
-0.03694	0.00416
-0.03700	0.00948
-0.03700	0.00851
-0.03700	0.01189
-0.03706	0.01093
-0.03706	0.01302
-0.03706	0.01334
-0.03711	0.01705
-0.03711	0.01302
-0.03717	0.01109
-0.03717	0.01415
-0.03717	0.01978
-0.03722	0.01850
-0.03722	0.01882
-0.03722	0.01721
-0.03728	0.01576
-0.03728	0.01286
-0.03728	0.01866
-0.03733	0.01672
-0.03733	0.01318
-0.03739	0.01238
-0.03739	0.01302
-0.03739	0.01415
-0.03744	0.00964
-0.03744	0.00545
-0.03750	0.00400
-0.03750	0.00336
-0.03750	0.00368
-0.03756	0.00271
-0.03756	0.00223
-0.03761	0.00078
-0.03761	-0.00051
-0.03761	0.00046
-0.03767	-0.00421
-0.03767	-0.00325
-0.03772	-0.00357
-0.03772	-0.00888
-0.03772	-0.00341
-0.03778	-0.00775
-0.03778	-0.00405
-0.03778	-0.00405
-0.03783	-0.00631
-0.03783	-0.00631
-0.03789	-0.00775
-0.03789	-0.00792
-0.03789	-0.00631
-0.03794	-0.00534
-0.03794	-0.00920
-0.03794	-0.00598
-0.03800	-0.00292
-0.03800	-0.00035
-0.03806	-0.00035
-0.03806	0.00191
-0.03806	0.00014
-0.03806	-0.00228
-0.03811	-0.00164
-0.03811	0.00287
-0.03817	0.00191
-0.03817	0.00304
-0.03822	0.00126
-0.03822	0.00062
-0.03822	0.00561
-0.03828	0.00626
-0.03828	0.00658
-0.03833	0.00352
-0.03833	0.00191
-0.03833	0.00384
-0.03839	0.00497
-0.03839	0.00142
-0.03844	0.00175
-0.03844	0.00191
-0.03844	0.00062
-0.03850	-0.00051
-0.03850	0.00287
-0.03856	-0.00035
-0.03856	-0.00373
-0.03856	-0.00292
-0.03861	-0.00373
-0.03861	-0.00518
-0.03867	-0.00147
-0.03867	-0.00292
-0.03867	-0.00840
-0.03872	-0.00711
-0.03872	-0.00856
-0.03878	-0.00792
-0.03878	-0.01146
-0.03878	-0.01098
-0.03883	-0.00937
-0.03883	-0.01130
-0.03883	-0.00872
-0.03889	-0.00953
-0.03889	-0.00792
-0.03889	-0.01387
-0.03894	-0.00920
-0.03894	-0.00953
-0.03900	-0.00679
-0.03900	-0.00792
-0.03900	-0.00824
-0.03906	-0.01194
-0.03906	-0.01081
-0.03911	-0.00888
-0.03911	-0.00775
-0.03917	-0.01033
-0.03917	-0.00937
-0.03917	-0.00711
-0.03922	-0.01017
-0.03922	-0.01001
-0.03928	-0.01130
-0.03928	-0.00534
-0.03928	-0.00824
-0.03933	-0.00743
-0.03933	-0.01114
-0.03939	-0.00743
-0.03939	-0.01065
-0.03939	-0.00872
-0.03944	-0.00985
-0.03944	-0.00711
-0.03944	-0.00872
-0.03950	-0.00904
-0.03950	-0.01323
-0.03956	-0.00679
-0.03956	-0.00808
-0.03956	-0.00743
-0.03961	-0.00727
-0.03961	-0.00792
-0.03961	-0.01291
-0.03967	-0.01081
-0.03967	-0.00953
-0.03972	-0.01371
-0.03972	-0.00953
-0.03972	-0.00695
-0.03978	-0.00840
-0.03978	-0.01065
-0.03978	-0.01339
-0.03983	-0.01081
-0.03983	-0.01049
-0.03989	-0.00792
-0.03989	-0.00808
-0.03994	-0.01017
-0.03994	-0.01017
-0.03994	-0.00598
-0.04000	-0.01081
-0.04000	-0.00792
-0.04006	-0.00792
-0.04006	-0.01339
-0.04006	-0.01098
-0.04011	-0.01017
-0.04011	-0.00937
-0.04017	-0.00888
-0.04017	-0.00775
-0.04017	-0.01033
-0.04022	-0.00953
-0.04022	-0.00920
-0.04028	-0.00808
-0.04028	-0.00872
-0.04028	-0.00566
-0.04033	-0.00695
-0.04033	-0.00598
-0.04039	-0.00695
-0.04039	-0.00840
-0.04039	-0.00421
-0.04044	-0.00389
-0.04044	-0.00937
-0.04050	-0.00357
-0.04050	-0.00695
-0.04050	-0.00824
-0.04056	-0.00631
-0.04056	-0.00647
-0.04056	-0.00582
-0.04061	-0.00518
-0.04061	-0.00292
-0.04067	-0.00534
-0.04067	-0.00486
-0.04067	-0.00019
-0.04072	-0.00373
-0.04072	-0.00663
-0.04078	-0.01001
-0.04078	-0.00759
-0.04083	-0.00759
-0.04083	-0.00550
-0.04083	-0.00695
-0.04089	-0.00518
-0.04089	-0.00147
-0.04094	-0.00711
-0.04094	-0.00631
-0.04094	-0.00695
-0.04100	-0.01065
-0.04100	-0.01033
-0.04106	-0.00904
-0.04106	-0.00614
-0.04106	-0.00453
-0.04111	-0.00212
-0.04111	-0.00325
-0.04117	-0.00663
-0.04117	-0.00502
-0.04117	-0.00631
-0.04122	-0.00260
-0.04122	-0.00083
-0.04128	-0.00002
-0.04128	-0.00292
-0.04128	0.00094
-0.04133	0.00078
-0.04133	0.00271
-0.04133	0.00175
-0.04139	0.00497
-0.04139	0.01399
-0.04144	0.01189
-0.04144	0.00771
-0.04150	0.01286
-0.04150	0.01254
-0.04150	0.01366
-0.04156	0.01721
-0.04156	0.01833
-0.04161	0.02123
-0.04161	0.02059
-0.04167	0.02011
-0.04167	0.02107
-0.04167	0.01962
-0.04172	0.01656
-0.04172	0.02043
-0.04178	0.01560
-0.04178	0.01914
-0.04178	0.01737
-0.04183	0.01737
-0.04183	0.01527
-0.04189	0.01656
-0.04189	0.01415
-0.04189	0.01479
-0.04194	0.01060
-0.04194	0.01254
-0.04200	0.00803
-0.04200	0.00610
-0.04200	0.00448
-0.04206	0.00545
-0.04206	0.00239
-0.04211	-0.00115
-0.04211	0.00400
-0.04211	0.00191
-0.04217	-0.00002
-0.04217	0.00223
-0.04217	0.00175
-0.04222	0.00159
-0.04222	-0.00083
-0.04228	-0.00357
-0.04228	-0.00228
-0.04228	-0.00196
-0.04233	0.00223
-0.04233	0.00336
-0.04239	0.00674
-0.04239	0.01399
-0.04244	0.01447
-0.04244	0.01399
-0.04244	0.01995
-0.04250	0.02365
-0.04250	0.02188
-0.04256	0.02429
-0.04256	0.03009
-0.04256	0.03202
-0.04261	0.03460
-0.04261	0.03331
-0.04267	0.03879
-0.04267	0.03991
-0.04272	0.04104
-0.04272	0.04475
-0.04272	0.04507
-0.04278	0.04475
-0.04278	0.04442
-0.04283	0.04072
-0.04283	0.04249
-0.04283	0.04024
-0.04289	0.04072
-0.04289	0.04136
-0.04294	0.03798
-0.04294	0.04072
-0.04294	0.03412
-0.04300	0.03460
-0.04300	0.03267
-0.04300	0.02945
-0.04306	0.03009
-0.04306	0.02494
-0.04311	0.02317
-0.04311	0.02027
-0.04311	0.02043
-0.04317	0.01882
-0.04317	0.01689
-0.04317	0.01157
-0.04322	0.01302
-0.04322	0.00835
-0.04328	0.00577
-0.04328	0.00384
-0.04333	0.00400
-0.04333	0.00304
-0.04333	0.00400
-0.04339	0.00626
-0.04339	0.00304
-0.04344	0.00062
-0.04344	0.00481
-0.04344	0.00996
-0.04350	0.00883
-0.04350	0.01221
-0.04356	0.01270
-0.04356	0.01495
-0.04356	0.01721
-0.04361	0.01978
-0.04361	0.02059
-0.04367	0.03235
-0.04367	0.03267
-0.04367	0.03573
-0.04372	0.03734
-0.04372	0.03943
-0.04378	0.04185
-0.04378	0.04169
-0.04378	0.04442
-0.04383	0.04555
-0.04383	0.04684
-0.04383	0.04684
-0.04389	0.04555
-0.04389	0.04845
-0.04394	0.04571
-0.04394	0.04169
-0.04394	0.04652
-0.04400	0.04491
-0.04400	0.04088
-0.04400	0.04104
-0.04406	0.03975
-0.04406	0.03750
-0.04411	0.03444
-0.04411	0.03331
-0.04411	0.02929
-0.04417	0.02768
-0.04417	0.01978
-0.04422	0.01833
-0.04422	0.01753
-0.04428	0.01109
-0.04428	0.01334
-0.04428	0.00883
-0.04433	0.00626
-0.04433	0.00771
-0.04439	0.00674
-0.04439	0.00400
-0.04444	0.00271
-0.04444	0.00142
-0.04444	0.00126
-0.04450	0.00126
-0.04450	0.00191
-0.04456	0.00352
-0.04456	0.00046
-0.04456	0.00416
-0.04461	0.00481
-0.04461	0.00207
-0.04461	0.00529
-0.04467	0.00545
-0.04467	0.00674
-0.04467	0.00980
-0.04472	0.00642
-0.04472	0.01109
-0.04472	0.01560
-0.04478	0.01431
-0.04478	0.01399
-0.04478	0.01656
-0.04483	0.01817
-0.04483	0.01737
-0.04489	0.02123
-0.04489	0.01850
-0.04494	0.02188
-0.04494	0.02284
-0.04494	0.02301
-0.04500	0.02478
-0.04500	0.02204
-0.04506	0.02156
-0.04506	0.02139
-0.04511	0.02075
-0.04511	0.01640
-0.04511	0.01705
-0.04517	0.01592
-0.04517	0.01077
-0.04522	0.01254
-0.04522	0.01205
-0.04522	0.00883
-0.04528	0.00722
-0.04528	0.00658
-0.04528	0.00336
-0.04533	0.00255
-0.04533	0.00207
-0.04539	0.00223
-0.04539	0.00046
-0.04539	-0.00035
-0.04544	0.00078
-0.04544	0.00610
-0.04550	0.00014
-0.04550	-0.00180
-0.04550	-0.00099
-0.04556	-0.00437
-0.04556	-0.00373
-0.04556	-0.00550
-0.04561	-0.00325
-0.04561	-0.00276
-0.04561	-0.00292
-0.04567	-0.00534
-0.04567	-0.00598
-0.04567	-0.00308
-0.04572	-0.00743
-0.04572	-0.00534
-0.04578	-0.00647
-0.04578	-0.00582
-0.04583	-0.00775
-0.04583	-0.00341
-0.04583	-0.00647
-0.04589	-0.00341
-0.04589	-0.00421
-0.04594	-0.00550
-0.04594	-0.00502
-0.04594	-0.00421
-0.04600	-0.00180
-0.04600	-0.00292
-0.04606	-0.00389
-0.04606	-0.00180
-0.04606	-0.00180
-0.04611	-0.00357
-0.04611	-0.00518
-0.04611	-0.00534
-0.04617	-0.00276
-0.04617	-0.00115
-0.04622	-0.00373
-0.04622	-0.00985
-0.04622	-0.00598
-0.04628	-0.00759
-0.04628	-0.00614
-0.04628	-0.00566
-0.04633	-0.00711
-0.04633	-0.00421
-0.04639	-0.01339
-0.04639	-0.00631
-0.04639	-0.00920
-0.04644	-0.00647
-0.04644	-0.00888
-0.04644	-0.00534
-0.04650	-0.00808
-0.04650	-0.00759
-0.04650	-0.00743
-0.04656	-0.00840
-0.04656	-0.01194
-0.04661	-0.00711
-0.04661	-0.00389
-0.04661	-0.00453
-0.04667	-0.00357
-0.04667	-0.00244
-0.04672	-0.00373
-0.04672	-0.00582
-0.04678	-0.00534
-0.04678	-0.00550
-0.04678	-0.00614
-0.04683	-0.00888
-0.04683	-0.00502
-0.04689	-0.00792
-0.04689	-0.00598
-0.04689	-0.00212
-0.04694	-0.00244
-0.04694	-0.00308
-0.04694	-0.00341
-0.04700	-0.00115
-0.04700	0.00287
-0.04706	0.00320
-0.04706	0.00110
-0.04706	0.00287
-0.04711	-0.00051
-0.04711	0.00271
-0.04717	0.00465
-0.04717	0.00642
-0.04717	0.00899
-0.04722	0.00674
-0.04722	0.01157
-0.04722	0.00948
-0.04728	0.01093
-0.04728	0.00996
-0.04728	0.00996
-0.04733	0.00964
-0.04733	0.01431
-0.04733	0.01302
-0.04739	0.01350
-0.04739	0.01495
-0.04744	0.01463
-0.04744	0.01044
-0.04744	0.01383
-0.04750	0.01077
-0.04750	0.01109
-0.04756	0.00932
-0.04756	0.00787
-0.04761	0.00722
-0.04761	0.00867
-0.04761	0.00690
-0.04767	0.00610
-0.04767	0.00626
-0.04767	0.00561
-0.04772	0.00545
-0.04772	0.00287
-0.04778	0.00497
-0.04778	0.00223
-0.04778	0.00448
-0.04783	0.00642
-0.04783	0.00271
-0.04789	0.00577
-0.04789	0.00690
-0.04789	0.01028
-0.04794	0.00948
-0.04794	0.01608
-0.04794	0.01447
-0.04800	0.01833
-0.04800	0.01978
-0.04806	0.02413
-0.04806	0.02558
-0.04806	0.02945
-0.04806	0.03476
-0.04811	0.03524
-0.04811	0.03991
-0.04817	0.04459
-0.04817	0.04813
-0.04822	0.05006
-0.04822	0.05538
-0.04822	0.06021
-0.04828	0.06472
-0.04828	0.07067
-0.04833	0.07373
-0.04833	0.07663
-0.04839	0.07567
-0.04839	0.07760
-0.04839	0.07808
-0.04844	0.07518
-0.04844	0.07373
-0.04850	0.07325
-0.04850	0.07277
-0.04850	0.06842
-0.04856	0.06987
-0.04856	0.06600
-0.04861	0.05908
-0.04861	0.05425
-0.04861	0.05119
-0.04867	0.04684
-0.04867	0.04297
-0.04872	0.04201
-0.04872	0.03702
-0.04872	0.03557
-0.04878	0.03202
-0.04878	0.02703
-0.04878	0.02526
-0.04883	0.02172
-0.04883	0.02204
-0.04883	0.01978
-0.04889	0.01608
-0.04889	0.01930
-0.04889	0.01737
-0.04894	0.02123
-0.04894	0.02172
-0.04900	0.02091
-0.04900	0.02220
-0.04906	0.02735
-0.04906	0.03444
-0.04906	0.03991
-0.04911	0.04571
-0.04911	0.05634
-0.04917	0.06407
-0.04917	0.06890
-0.04917	0.07438
-0.04922	0.08340
-0.04922	0.08936
-0.04928	0.09773
-0.04928	0.10643
-0.04928	0.11142
-0.04933	0.11979
-0.04933	0.12704
-0.04939	0.13381
-0.04939	0.13880
-0.04939	0.14025
-0.04944	0.14331
-0.04944	0.14540
-0.04950	0.14460
-0.04950	0.14379
-0.04950	0.14347
-0.04956	0.14540
-0.04956	0.14572
-0.04961	0.14137
-0.04961	0.13622
-0.04961	0.12994
-0.04967	0.12801
-0.04967	0.11979
-0.04967	0.11400
-0.04972	0.10804
-0.04972	0.10288
-0.04972	0.09773
-0.04978	0.09226
-0.04978	0.08308
-0.04983	0.07422
-0.04983	0.07100
-0.04983	0.06262
-0.04989	0.05151
-0.04989	0.04668
-0.04994	0.04281
-0.04994	0.03541
-0.05000	0.03412
-0.05000	0.03331
-0.05000	0.02655
-0.05006	0.02800
-0.05006	0.02800
-0.05011	0.02832
-0.05011	0.03186
-0.05011	0.03090
-0.05017	0.03363
-0.05017	0.03814
-0.05022	0.04394
-0.05022	0.04620
-0.05022	0.05731
-0.05028	0.06133
-0.05028	0.07357
-0.05033	0.08163
-0.05033	0.08823
-0.05033	0.09419
-0.05039	0.10063
-0.05039	0.11255
-0.05044	0.11770
-0.05044	0.12881
-0.05044	0.13590
-0.05050	0.14025
-0.05050	0.14621
-0.05050	0.14685
-0.05056	0.14669
-0.05056	0.14814
-0.05056	0.15265
-0.05061	0.15361
-0.05061	0.15200
-0.05067	0.15329
-0.05067	0.15136
-0.05072	0.14798
-0.05072	0.14234
-0.05072	0.13606
-0.05078	0.13091
-0.05078	0.12350
-0.05083	0.11287
-0.05083	0.10208
-0.05089	0.09821
-0.05089	0.08807
-0.05089	0.07921
-0.05094	0.06987
-0.05094	0.06375
-0.05100	0.05876
-0.05100	0.05006
-0.05100	0.04603
-0.05106	0.03653
-0.05106	0.03331
-0.05111	0.02639
-0.05111	0.02494
-0.05111	0.02349
-0.05117	0.01962
-0.05117	0.01753
-0.05122	0.01769
-0.05122	0.02059
-0.05122	0.01914
-0.05128	0.01833
-0.05128	0.02365
-0.05128	0.02268
-0.05133	0.02639
-0.05133	0.03218
-0.05139	0.03927
-0.05139	0.03718
-0.05139	0.04587
-0.05144	0.05280
-0.05144	0.05473
-0.05150	0.06005
-0.05150	0.06617
-0.05156	0.06745
-0.05156	0.07438
-0.05156	0.07341
-0.05161	0.07325
-0.05161	0.07390
-0.05167	0.07631
-0.05167	0.07776
-0.05172	0.07857
-0.05172	0.07873
-0.05172	0.07631
-0.05178	0.07309
-0.05178	0.07148
-0.05183	0.06971
-0.05183	0.06391
-0.05183	0.06294
-0.05189	0.05972
-0.05189	0.05215
-0.05194	0.04813
-0.05194	0.04587
-0.05194	0.04201
-0.05200	0.03524
-0.05200	0.03202
-0.05206	0.02751
-0.05206	0.02719
-0.05206	0.02268
-0.05211	0.02220
-0.05211	0.01205
-0.05217	0.01286
-0.05217	0.01028
-0.05217	0.00706
-0.05222	0.01044
-0.05222	0.00465
-0.05222	0.00626
-0.05228	0.00094
-0.05228	0.00287
-0.05233	0.00304
-0.05233	0.00014
-0.05239	-0.00196
-0.05239	-0.00035
-0.05239	0.00014
-0.05244	0.00352
-0.05244	0.00046
-0.05250	-0.00131
-0.05250	0.00191
-0.05256	0.00255
-0.05256	-0.00131
-0.05256	-0.00357
-0.05261	0.00062
-0.05261	0.00304
-0.05267	0.00094
-0.05267	0.00223
-0.05267	0.00014
-0.05272	0.00062
-0.05272	0.00142
-0.05278	-0.00035
-0.05278	-0.00212
-0.05278	-0.00019
-0.05283	-0.00051
-0.05283	-0.00035
-0.05289	0.00142
-0.05289	-0.00099
-0.05289	-0.00260
-0.05294	0.00191
-0.05294	0.00320
-0.05300	0.00142
-0.05300	0.00078
-0.05300	-0.00002
-0.05306	0.00159
-0.05306	0.00078
-0.05306	0.00078
-0.05311	0.00352
-0.05311	0.00577
-0.05317	0.00159
-0.05317	0.00271
-0.05317	0.00465
-0.05322	0.00287
-0.05322	0.00014
-0.05328	0.00014
-0.05328	0.00030
-0.05333	0.00352
-0.05333	0.00448
-0.05333	0.00207
-0.05339	0.00545
-0.05339	0.00626
-0.05344	0.00465
-0.05344	0.00271
-0.05344	0.00948
-0.05350	0.00835
-0.05350	0.01383
-0.05356	0.01479
-0.05356	0.01624
-0.05356	0.01576
-0.05361	0.01689
-0.05361	0.02494
-0.05367	0.02606
-0.05367	0.03074
-0.05367	0.03653
-0.05372	0.04265
-0.05372	0.04716
-0.05372	0.05071
-0.05378	0.05827
-0.05378	0.06375
-0.05383	0.06762
-0.05383	0.07470
-0.05383	0.08034
-0.05389	0.08581
-0.05389	0.08903
-0.05389	0.09693
-0.05394	0.10079
-0.05394	0.10594
-0.05400	0.10369
-0.05400	0.10933
-0.05400	0.11223
-0.05406	0.11706
-0.05406	0.11899
-0.05411	0.11818
-0.05411	0.11625
-0.05411	0.11561
-0.05417	0.11416
-0.05417	0.11480
-0.05422	0.10707
-0.05422	0.10160
-0.05422	0.09757
-0.05428	0.09354
-0.05428	0.08726
-0.05433	0.08324
-0.05433	0.08018
-0.05433	0.07245
-0.05439	0.06681
-0.05439	0.06359
-0.05444	0.06037
-0.05444	0.06133
-0.05444	0.05844
-0.05450	0.05876
-0.05450	0.05988
-0.05456	0.06697
-0.05456	0.07245
-0.05456	0.07985
-0.05461	0.08903
-0.05461	0.10305
-0.05467	0.11480
-0.05467	0.13026
-0.05467	0.14250
-0.05472	0.16118
-0.05472	0.18421
-0.05472	0.20660
-0.05478	0.22898
-0.05478	0.25105
-0.05478	0.28149
-0.05483	0.30613
-0.05483	0.33914
-0.05489	0.36378
-0.05489	0.39937
-0.05494	0.42466
-0.05494	0.45461
-0.05494	0.48102
-0.05500	0.50437
-0.05500	0.52757
-0.05506	0.54625
-0.05506	0.55881
-0.05506	0.57137
-0.05511	0.57846
-0.05511	0.58136
-0.05517	0.58522
-0.05517	0.58039
-0.05517	0.57266
-0.05522	0.55945
-0.05522	0.54560
-0.05528	0.52885
-0.05528	0.50969
-0.05528	0.49004
-0.05533	0.46669
-0.05533	0.43947
-0.05539	0.40694
-0.05539	0.38182
-0.05539	0.35460
-0.05544	0.32400
-0.05544	0.30129
-0.05544	0.27665
-0.05550	0.25523
-0.05550	0.23543
-0.05556	0.22045
-0.05556	0.20563
-0.05556	0.19790
-0.05561	0.19275
-0.05561	0.19243
-0.05561	0.19549
-0.05567	0.20032
-0.05567	0.21046
-0.05567	0.23156
-0.05572	0.25991
-0.05572	0.28954
-0.05578	0.33028
-0.05578	0.37827
-0.05583	0.42433
-0.05583	0.48521
-0.05583	0.54480
-0.05589	0.60986
-0.05589	0.67444
-0.05594	0.74369
-0.05594	0.81697
-0.05594	0.88525
-0.05600	0.95966
-0.05600	1.02762
-0.05605	1.09333
-0.05605	1.15018
-0.05605	1.20654
-0.05611	1.26452
-0.05611	1.30607
-0.05611	1.34827
-0.05617	1.37951
-0.05617	1.40737
-0.05622	1.42267
-0.05622	1.42992
-0.05622	1.42863
-0.05628	1.42670
-0.05628	1.40592
-0.05633	1.37581
-0.05633	1.35084
-0.05633	1.31203
-0.05639	1.26822
-0.05639	1.21331
-0.05639	1.16177
-0.05644	1.10396
-0.05644	1.03921
-0.05644	0.98881
-0.05650	0.92777
-0.05650	0.85095
-0.05650	0.77445
-0.05655	0.70021
-0.05655	0.62194
-0.05661	0.55736
-0.05661	0.50260
-0.05667	0.45477
-0.05667	0.41548
-0.05667	0.39438
-0.05672	0.38166
-0.05672	0.38488
-0.05678	0.40034
-0.05678	0.42578
-0.05678	0.46427
-0.05683	0.52612
-0.05683	0.58651
-0.05689	0.66188
-0.05689	0.75400
-0.05689	0.85288
-0.05694	0.95627
-0.05694	1.06241
-0.05700	1.18786
-0.05700	1.31106
-0.05700	1.42702
-0.05705	1.55054
-0.05705	1.66908
-0.05705	1.78294
-0.05711	1.89583
-0.05711	2.00486
-0.05717	2.09811
-0.05717	2.17960
-0.05717	2.25497
-0.05722	2.32197
-0.05722	2.37576
-0.05722	2.41168
-0.05728	2.43873
-0.05728	2.45597
-0.05728	2.46547
-0.05733	2.45307
-0.05733	2.42456
-0.05739	2.38333
-0.05739	2.33276
-0.05739	2.25610
-0.05744	2.15641
-0.05744	2.06477
-0.05750	1.94689
-0.05750	1.82578
-0.05750	1.72254
-0.05755	1.58275
-0.05755	1.46132
-0.05761	1.33957
-0.05761	1.22136
-0.05761	1.10154
-0.05767	0.97705
-0.05767	0.88670
-0.05772	0.79668
-0.05772	0.72646
-0.05772	0.66478
-0.05778	0.61952
-0.05778	0.58892
-0.05783	0.57572
-0.05783	0.57894
-0.05783	0.60583
-0.05789	0.64867
-0.05789	0.70585
-0.05789	0.78508
-0.05794	0.87285
-0.05794	0.97480
-0.05800	1.09027
-0.05800	1.20799
-0.05800	1.34134
-0.05805	1.49160
-0.05805	1.61673
-0.05805	1.77907
-0.05811	1.91097
-0.05811	2.07234
-0.05817	2.23613
-0.05817	2.40958
-0.05817	2.57611
-0.05822	2.73732
-0.05822	2.89064
-0.05828	3.01079
-0.05828	3.11257
-0.05833	3.20067
-0.05833	3.26058
-0.05833	3.30503
-0.05839	3.32516
-0.05839	3.31566
-0.05844	3.30278
-0.05844	3.26541
-0.05844	3.19632
-0.05850	3.12175
-0.05850	3.02673
-0.05855	2.91045
-0.05855	2.79288
-0.05855	2.65390
-0.05861	2.52071
-0.05861	2.35466
-0.05861	2.20714
-0.05867	2.03450
-0.05867	1.87296
-0.05872	1.71755
-0.05872	1.57390
-0.05872	1.42799
-0.05878	1.27322
-0.05878	1.16370
-0.05883	1.04469
-0.05883	0.94130
-0.05883	0.86174
-0.05889	0.79829
-0.05889	0.75174
-0.05889	0.72002
-0.05894	0.70182
-0.05894	0.70423
-0.05894	0.73983
-0.05900	0.79523
-0.05900	0.86142
-0.05905	0.97447
-0.05905	1.10750
-0.05911	1.23521
-0.05911	1.37693
-0.05911	1.55038
-0.05917	1.72270
-0.05917	1.90163
-0.05922	2.08571
-0.05922	2.27752
-0.05922	2.45645
-0.05928	2.64617
-0.05928	2.82155
-0.05933	2.97053
-0.05933	3.12981
-0.05933	3.26670
-0.05939	3.39393
-0.05939	3.49073
-0.05944	3.57898
-0.05944	3.64308
-0.05944	3.67997
-0.05950	3.70155
-0.05950	3.69027
-0.05950	3.65806
-0.05955	3.61699
-0.05955	3.53985
-0.05961	3.45868
-0.05961	3.32967
-0.05961	3.23191
-0.05967	3.08793
-0.05967	2.93397
-0.05967	2.77485
-0.05972	2.63006
-0.05972	2.43809
-0.05978	2.22872
-0.05978	2.04480
-0.05983	1.84011
-0.05983	1.65667
-0.05983	1.48194
-0.05989	1.31912
-0.05989	1.17691
-0.05994	1.03084
-0.05994	0.90989
-0.05994	0.82599
-0.06000	0.75899
-0.06000	0.71921
-0.06005	0.70585
-0.06005	0.71309
-0.06005	0.74256
-0.06011	0.81053
-0.06011	0.90168
-0.06017	0.99750
-0.06017	1.11668
-0.06017	1.26001
-0.06022	1.41591
-0.06022	1.56037
-0.06028	1.71562
-0.06028	1.90356
-0.06028	2.06961
-0.06033	2.23082
-0.06033	2.39815
-0.06039	2.56258
-0.06039	2.71961
-0.06039	2.85682
-0.06044	2.98438
-0.06044	3.08632
-0.06050	3.18601
-0.06050	3.25720
-0.06050	3.31792
-0.06055	3.35576
-0.06055	3.37412
-0.06055	3.36994
-0.06061	3.34884
-0.06061	3.30181
-0.06067	3.23707
-0.06067	3.13754
-0.06072	3.02754
-0.06072	2.90095
-0.06072	2.73265
-0.06078	2.58030
-0.06078	2.44598
-0.06083	2.25578
-0.06083	2.08329
-0.06083	1.90743
-0.06089	1.73333
-0.06089	1.55006
-0.06094	1.37758
-0.06094	1.24938
-0.06094	1.10911
-0.06100	0.98301
-0.06100	0.86915
-0.06105	0.78589
-0.06105	0.70359
-0.06105	0.65077
-0.06111	0.61244
-0.06111	0.59360
-0.06117	0.59488
-0.06117	0.60873
-0.06122	0.64545
-0.06122	0.70262
-0.06122	0.75609
-0.06128	0.84048
-0.06128	0.93324
-0.06128	1.03760
-0.06133	1.15356
-0.06133	1.27290
-0.06139	1.40125
-0.06139	1.51688
-0.06139	1.64572
-0.06144	1.76007
-0.06144	1.90099
-0.06150	2.02145
-0.06150	2.13386
-0.06155	2.24016
-0.06155	2.33566
-0.06155	2.40523
-0.06161	2.46225
-0.06161	2.50492
-0.06167	2.53085
-0.06167	2.53665
-0.06167	2.52796
-0.06172	2.49881
-0.06172	2.46257
-0.06178	2.39654
-0.06178	2.32696
-0.06183	2.25014
-0.06183	2.13950
-0.06183	2.05076
-0.06189	1.93610
-0.06189	1.80178
-0.06194	1.68872
-0.06194	1.54233
-0.06194	1.42750
-0.06200	1.29399
-0.06200	1.16628
-0.06205	1.05194
-0.06205	0.93920
-0.06205	0.83323
-0.06211	0.74192
-0.06211	0.66043
-0.06217	0.59118
-0.06217	0.52112
-0.06217	0.48135
-0.06222	0.44157
-0.06222	0.41177
-0.06222	0.39921
-0.06228	0.39728
-0.06228	0.40114
-0.06233	0.42369
-0.06233	0.45993
-0.06233	0.50019
-0.06239	0.55897
-0.06239	0.61985
-0.06244	0.68410
-0.06244	0.76157
-0.06250	0.84032
-0.06250	0.92455
-0.06250	1.00169
-0.06255	1.08350
-0.06255	1.15050
-0.06261	1.22410
-0.06261	1.29222
-0.06261	1.34376
-0.06267	1.39143
-0.06267	1.43700
-0.06272	1.46937
-0.06272	1.49353
-0.06278	1.50545
-0.06278	1.50352
-0.06278	1.49643
-0.06283	1.48194
-0.06283	1.44409
-0.06289	1.41558
-0.06289	1.37548
-0.06289	1.31863
-0.06294	1.25743
-0.06294	1.20058
-0.06294	1.14325
-0.06300	1.06369
-0.06300	0.99605
-0.06305	0.92793
-0.06305	0.85079
-0.06305	0.77461
-0.06311	0.71197
-0.06311	0.64803
-0.06311	0.58281
-0.06317	0.51694
-0.06317	0.46943
-0.06322	0.42305
-0.06322	0.36330
-0.06322	0.31853
-0.06328	0.28149
-0.06328	0.24750
-0.06333	0.22206
-0.06333	0.21046
-0.06333	0.20209
-0.06339	0.20338
-0.06339	0.20451
-0.06344	0.21562
-0.06344	0.23172
-0.06344	0.25652
-0.06350	0.27859
-0.06350	0.30274
-0.06355	0.33511
-0.06355	0.36507
-0.06355	0.39680
-0.06361	0.42917
-0.06361	0.46138
-0.06367	0.49552
-0.06367	0.51935
-0.06367	0.54770
-0.06372	0.57379
-0.06372	0.59118
-0.06378	0.60664
-0.06378	0.61936
-0.06378	0.62999
-0.06383	0.63547
-0.06383	0.63627
-0.06389	0.63611
-0.06389	0.63225
-0.06389	0.62210
-0.06394	0.60664
-0.06394	0.59005
-0.06394	0.56976
-0.06400	0.54721
-0.06400	0.52821
-0.06400	0.50357
-0.06405	0.47764
-0.06405	0.44511
-0.06411	0.41821
-0.06411	0.37892
-0.06411	0.34768
-0.06417	0.31659
-0.06417	0.28277
-0.06422	0.25153
-0.06422	0.22576
-0.06428	0.20096
-0.06428	0.17407
-0.06428	0.15168
-0.06433	0.13687
-0.06433	0.11448
-0.06433	0.10272
-0.06439	0.09435
-0.06439	0.07889
-0.06444	0.07132
-0.06444	0.06375
-0.06444	0.06343
-0.06450	0.06391
-0.06450	0.06021
-0.06455	0.06600
-0.06455	0.07212
-0.06455	0.07776
-0.06461	0.08452
-0.06461	0.08324
-0.06467	0.09226
-0.06467	0.10111
-0.06467	0.10804
-0.06472	0.11013
-0.06472	0.12012
-0.06472	0.12720
-0.06478	0.13091
-0.06478	0.13622
-0.06483	0.13654
-0.06483	0.13606
-0.06483	0.14556
-0.06489	0.14331
-0.06489	0.14347
-0.06494	0.14186
-0.06494	0.14121
-0.06494	0.14009
-0.06500	0.13590
-0.06500	0.13477
-0.06505	0.12752
-0.06505	0.11883
-0.06505	0.11786
-0.06511	0.10417
-0.06511	0.10143
-0.06517	0.09451
-0.06517	0.08308
-0.06517	0.07373
-0.06522	0.07277
-0.06522	0.06246
-0.06528	0.05666
-0.06528	0.04781
-0.06528	0.04378
-0.06533	0.04330
-0.06533	0.03557
-0.06539	0.02929
-0.06539	0.02703
-0.06539	0.02333
-0.06544	0.01866
-0.06544	0.01383
-0.06544	0.01624
-0.06550	0.01479
-0.06550	0.01205
-0.06555	0.00899
-0.06555	0.01125
-0.06555	0.00626
-0.06561	0.00545
-0.06561	0.00336
-0.06561	0.00626
-0.06567	0.00271
-0.06567	0.00239
-0.06567	0.00191
-0.06572	0.00497
-0.06572	0.00255
-0.06578	0.00400
-0.06578	0.00287
-0.06578	0.00384
-0.06583	0.00304
-0.06583	0.00255
-0.06589	0.00159
-0.06589	0.00207
-0.06589	0.00207
-0.06594	0.00175
-0.06594	0.00223
-0.06600	0.00175
-0.06600	-0.00196
-0.06600	0.00014
-0.06605	0.00481
-0.06605	0.00030
-0.06611	0.00126
-0.06611	-0.00228
-0.06611	-0.00244
-0.06617	-0.00067
-0.06617	0.00030
-0.06622	0.00207
-0.06622	0.00062
-0.06622	-0.00147
-0.06628	-0.00099
-0.06628	0.00191
-0.06628	-0.00147
-0.06633	0.00014
-0.06633	0.00030
-0.06639	0.00191
-0.06639	0.00384
-0.06639	0.00046
-0.06644	0.00304
-0.06644	0.00271
-0.06644	0.00271
-0.06650	0.00416
-0.06650	0.00561
-0.06650	0.00207
-0.06655	0.00062
-0.06655	0.00271
-0.06661	0.00352
-0.06661	0.00448
-0.06661	0.00287
-0.06667	0.00207
-0.06667	0.00513
-0.06672	0.00803
-0.06672	0.00465
-0.06672	0.00771
-0.06678	0.01479
-0.06678	0.00787
-0.06683	0.00754
-0.06683	0.01286
-0.06683	0.01576
-0.06689	0.02123
-0.06689	0.02462
-0.06694	0.02864
-0.06694	0.03202
-0.06694	0.03782
-0.06700	0.03476
-0.06700	0.03847
-0.06700	0.04040
-0.06705	0.04507
-0.06705	0.04571
-0.06711	0.05264
-0.06711	0.05280
-0.06711	0.05908
-0.06717	0.06085
-0.06717	0.05860
-0.06717	0.06488
-0.06722	0.06294
-0.06722	0.06778
-0.06728	0.06745
-0.06728	0.06633
-0.06728	0.06504
-0.06733	0.06456
-0.06733	0.06311
-0.06733	0.06182
-0.06739	0.06150
-0.06739	0.06150
-0.06744	0.05473
-0.06744	0.05087
-0.06744	0.04781
-0.06750	0.04459
-0.06750	0.03879
-0.06755	0.03492
-0.06755	0.03315
-0.06755	0.03025
-0.06761	0.02606
-0.06761	0.02107
-0.06767	0.02059
-0.06767	0.01656
-0.06767	0.01995
-0.06772	0.01672
-0.06772	0.01689
-0.06778	0.01962
-0.06778	0.01833
-0.06778	0.02397
-0.06783	0.02252
-0.06783	0.02719
-0.06789	0.02848
-0.06789	0.03396
-0.06789	0.04008
-0.06794	0.04426
-0.06794	0.05215
-0.06794	0.05666
-0.06800	0.06617
-0.06800	0.07406
-0.06805	0.07921
-0.06805	0.08452
-0.06805	0.08968
-0.06811	0.09499
-0.06811	0.10176
-0.06811	0.10772
-0.06817	0.11673
-0.06817	0.12366
-0.06822	0.12881
-0.06822	0.13364
-0.06822	0.13993
-0.06828	0.13896
-0.06828	0.14154
-0.06833	0.14427
-0.06833	0.14299
-0.06833	0.13542
-0.06839	0.13461
-0.06839	0.13445
-0.06844	0.13300
-0.06844	0.12817
-0.06844	0.12495
-0.06850	0.11561
-0.06850	0.11416
-0.06855	0.10530
-0.06855	0.09370
-0.06855	0.08710
-0.06861	0.08018
-0.06861	0.07535
-0.06867	0.06584
-0.06867	0.06085
-0.06867	0.05457
-0.06872	0.04845
-0.06872	0.04169
-0.06872	0.03412
-0.06878	0.02735
-0.06878	0.03090
-0.06883	0.02768
-0.06883	0.02365
-0.06883	0.02735
-0.06889	0.02558
-0.06889	0.02590
-0.06889	0.02156
-0.06894	0.02574
-0.06894	0.02912
-0.06900	0.03541
-0.06900	0.04088
-0.06900	0.04765
-0.06905	0.04571
-0.06905	0.05554
-0.06911	0.06649
-0.06911	0.07712
-0.06911	0.08469
-0.06917	0.08807
-0.06917	0.09403
-0.06922	0.10385
-0.06922	0.10933
-0.06922	0.11673
-0.06928	0.11802
-0.06928	0.12913
-0.06933	0.13284
-0.06933	0.13493
-0.06933	0.13606
-0.06939	0.13880
-0.06939	0.13783
-0.06944	0.13670
-0.06944	0.13831
-0.06944	0.13912
-0.06950	0.13719
-0.06950	0.12849
-0.06955	0.12430
-0.06955	0.11931
-0.06955	0.11319
-0.06961	0.10755
-0.06961	0.09950
-0.06961	0.09628
-0.06967	0.09081
-0.06967	0.08291
-0.06972	0.07551
-0.06972	0.07035
-0.06972	0.06182
-0.06978	0.05409
-0.06978	0.05006
-0.06983	0.04008
-0.06983	0.03814
-0.06983	0.02912
-0.06989	0.02365
-0.06989	0.02268
-0.06994	0.02011
-0.06994	0.01769
-0.07000	0.01238
-0.07000	0.01205
-0.07000	0.01672
-0.07005	0.01769
-0.07005	0.01850
-0.07005	0.02268
-0.07011	0.02349
-0.07011	0.02510
-0.07017	0.03090
-0.07017	0.03476
-0.07017	0.03750
-0.07022	0.03718
-0.07022	0.04265
-0.07028	0.04587
-0.07028	0.05312
-0.07028	0.05892
-0.07033	0.06472
-0.07033	0.06729
-0.07039	0.06278
-0.07039	0.06810
-0.07039	0.07229
-0.07044	0.07567
-0.07044	0.07728
-0.07050	0.07196
-0.07050	0.07309
-0.07050	0.07261
-0.07055	0.07357
-0.07055	0.07067
-0.07055	0.06923
-0.07061	0.06810
-0.07061	0.05972
-0.07067	0.05972
-0.07067	0.06375
-0.07067	0.04974
-0.07072	0.04459
-0.07072	0.04426
-0.07078	0.04346
-0.07078	0.04120
-0.07078	0.03363
-0.07083	0.02912
-0.07083	0.02574
-0.07089	0.02445
-0.07089	0.01914
-0.07094	0.01737
-0.07094	0.01221
-0.07094	0.01077
-0.07100	0.01028
-0.07100	0.00545
-0.07105	0.00207
-0.07105	0.00046
-0.07105	0.00384
-0.07111	0.00223
-0.07111	-0.00099
-0.07117	-0.00131
-0.07117	0.00110
-0.07117	-0.00051
-0.07122	0.00336
-0.07122	0.00030
-0.07128	0.00126
-0.07128	0.00610
-0.07128	0.00787
-0.07133	0.00481
-0.07133	0.00432
-0.07133	0.00593
-0.07139	0.00062
-0.07139	0.00448
-0.07144	0.00577
-0.07144	0.00577
-0.07144	0.01060
-0.07150	0.01173
-0.07150	0.01286
-0.07155	0.01318
-0.07155	0.01415
-0.07155	0.01189
-0.07161	0.01173
-0.07161	0.00658
-0.07167	0.00352
-0.07167	0.00996
-0.07172	0.00948
-0.07172	0.00738
-0.07172	0.00980
-0.07178	0.00513
-0.07178	0.00674
-0.07183	0.00448
-0.07183	0.00416
-0.07189	0.00207
-0.07189	0.00062
-0.07189	0.00239
-0.07194	0.00078
-0.07194	-0.00437
-0.07200	-0.00180
-0.07200	-0.00228
-0.07200	-0.00325
-0.07205	-0.00389
-0.07205	-0.00631
-0.07211	-0.00550
-0.07211	-0.00695
-0.07211	-0.00631
-0.07217	-0.00598
-0.07217	-0.00598
-0.07217	-0.00920
-0.07222	-0.01210
-0.07222	-0.00486
-0.07228	-0.00904
-0.07228	-0.00920
-0.07228	-0.01339
-0.07233	-0.01130
-0.07233	-0.01259
-0.07239	-0.00840
-0.07239	-0.00647
-0.07239	-0.00566
-0.07244	-0.00792
-0.07244	-0.00421
-0.07250	-0.00872
-0.07250	-0.00582
-0.07255	-0.00759
-0.07255	-0.00792
-0.07255	-0.00888
-0.07261	-0.00872
-0.07261	-0.01033
-0.07267	-0.00566
-0.07267	-0.00502
-0.07267	-0.00534
-0.07272	-0.00582
-0.07272	-0.00759
-0.07278	-0.00937
-0.07278	-0.01065
-0.07278	-0.00566
-0.07283	-0.00389
-0.07283	-0.00856
-0.07289	-0.01017
-0.07289	-0.00792
-0.07289	-0.00775
-0.07294	-0.00614
-0.07294	-0.00550
-0.07300	-0.00663
-0.07300	-0.00534
-0.07300	-0.00453
-0.07305	-0.00663
-0.07305	-0.00647
-0.07305	-0.00824
-0.07311	-0.00566
-0.07311	-0.00437
-0.07317	-0.00647
-0.07317	-0.01178
-0.07317	-0.00759
-0.07322	-0.01049
-0.07322	-0.00856
-0.07328	-0.00421
-0.07328	-0.00711
-0.07328	-0.00631
-0.07333	-0.01371
-0.07333	-0.00228
-0.07339	-0.01130
-0.07339	-0.00872
-0.07339	-0.00405
-0.07344	-0.00486
-0.07344	-0.00486
-0.07350	-0.00341
-0.07350	-0.00373
-0.07350	0.00126
-0.07355	0.00191
-0.07355	0.00239
-0.07361	0.00255
-0.07361	0.00078
-0.07361	0.00416
-0.07367	0.00610
-0.07367	0.00980
-0.07372	0.00803
-0.07372	0.01189
-0.07372	0.01318
-0.07378	0.01672
-0.07378	0.01238
-0.07383	0.01431
-0.07383	0.01463
-0.07383	0.01495
-0.07389	0.01850
-0.07389	0.01592
-0.07389	0.01801
-0.07394	0.01560
-0.07394	0.01882
-0.07400	0.02027
-0.07400	0.01093
-0.07400	0.01576
-0.07405	0.01769
-0.07405	0.01157
-0.07405	0.01463
-0.07411	0.01318
-0.07411	0.01044
-0.07417	0.00915
-0.07417	0.00658
-0.07417	0.00400
-0.07422	0.00529
-0.07422	0.00352
-0.07428	0.00336
-0.07428	-0.00083
-0.07428	-0.00341
-0.07433	-0.00228
-0.07433	-0.00260
-0.07439	-0.00276
-0.07439	-0.00389
-0.07439	-0.00437
-0.07444	-0.00292
-0.07444	-0.00357
-0.07450	-0.00115
-0.07450	0.00400
-0.07450	0.00368
-0.07455	0.00384
-0.07455	0.00497
-0.07461	0.00577
-0.07461	0.00915
-0.07461	0.01415
-0.07467	0.01624
-0.07467	0.01705
-0.07467	0.01785
-0.07472	0.02252
-0.07472	0.02220
-0.07478	0.02204
-0.07478	0.02880
-0.07478	0.02768
-0.07483	0.02912
-0.07483	0.03750
-0.07489	0.03476
-0.07489	0.03798
-0.07489	0.03927
-0.07494	0.04136
-0.07494	0.04297
-0.07500	0.04475
-0.07500	0.04797
-0.07505	0.04169
-0.07505	0.04314
-0.07505	0.04056
-0.07511	0.03863
-0.07511	0.03669
-0.07517	0.03444
-0.07517	0.03363
-0.07517	0.03170
-0.07522	0.02623
-0.07522	0.02397
-0.07522	0.02220
-0.07528	0.01576
-0.07528	0.01592
-0.07533	0.01286
-0.07533	0.00932
-0.07533	0.00754
-0.07539	0.00819
-0.07539	0.00239
-0.07544	0.00239
-0.07544	0.00400
-0.07544	0.00432
-0.07550	-0.00019
-0.07550	0.00110
-0.07550	0.00078
-0.07555	0.00223
-0.07555	0.00191
-0.07561	0.00094
-0.07561	0.00577
-0.07561	0.00545
-0.07567	0.00448
-0.07567	0.00738
-0.07567	0.00835
-0.07572	0.00915
-0.07572	0.01141
-0.07572	0.01254
-0.07578	0.01511
-0.07578	0.01930
-0.07583	0.02397
-0.07583	0.02784
-0.07583	0.02848
-0.07589	0.02848
-0.07589	0.02961
-0.07594	0.03380
-0.07594	0.03573
-0.07594	0.03283
-0.07600	0.03524
-0.07600	0.04314
-0.07605	0.03895
-0.07605	0.04072
-0.07605	0.04330
-0.07611	0.04217
-0.07611	0.04104
-0.07617	0.03621
-0.07617	0.03782
-0.07617	0.03798
-0.07622	0.03186
-0.07622	0.03299
-0.07622	0.03283
-0.07628	0.02945
-0.07628	0.02961
-0.07633	0.02526
-0.07633	0.02301
-0.07633	0.02123
-0.07639	0.01801
-0.07639	0.01286
-0.07639	0.01270
-0.07644	0.00932
-0.07644	0.01044
-0.07644	0.00448
-0.07650	0.00239
-0.07650	0.00159
-0.07650	0.00610
-0.07655	0.00046
-0.07655	-0.00373
-0.07661	-0.00196
-0.07661	-0.00308
-0.07667	-0.00196
-0.07667	-0.00357
-0.07667	-0.00019
-0.07672	-0.00002
-0.07672	-0.00115
-0.07678	0.00207
-0.07678	0.00287
-0.07678	-0.00067
-0.07683	0.00207
-0.07683	0.00336
-0.07689	0.00400
-0.07689	0.00400
-0.07689	0.00465
-0.07694	0.00545
-0.07694	0.00803
-0.07694	0.00851
-0.07700	0.00899
-0.07700	0.00819
-0.07705	0.00980
-0.07705	0.01028
-0.07705	0.00851
-0.07711	0.01366
-0.07711	0.01689
-0.07717	0.01672
-0.07717	0.01656
-0.07717	0.01850
-0.07722	0.02011
-0.07722	0.01560
-0.07722	0.01672
-0.07728	0.01511
-0.07728	0.01624
-0.07728	0.01656
-0.07733	0.01817
-0.07733	0.01753
-0.07739	0.01431
-0.07739	0.01705
-0.07739	0.01366
-0.07744	0.01447
-0.07744	0.01173
-0.07750	0.00932
-0.07750	0.00867
-0.07750	0.00787
-0.07755	0.00722
-0.07755	0.00513
-0.07761	0.00304
-0.07761	0.00320
-0.07761	0.00046
-0.07767	-0.00180
-0.07767	-0.00453
-0.07772	-0.00228
-0.07772	-0.00824
-0.07772	-0.00647
-0.07778	-0.00663
-0.07778	-0.00437
-0.07783	-0.00518
-0.07783	-0.00759
-0.07783	-0.00904
-0.07789	-0.01098
-0.07789	-0.01033
-0.07789	-0.00937
-0.07794	-0.01017
-0.07794	-0.01114
-0.07800	-0.00985
-0.07800	-0.01033
-0.07800	-0.00759
-0.07805	-0.00405
-0.07805	-0.00647
-0.07805	-0.00824
-0.07811	-0.00647
-0.07811	-0.00453
-0.07811	-0.00180
-0.07817	-0.00341
-0.07817	-0.00308
-0.07822	-0.00453
-0.07822	-0.00212
-0.07828	-0.00341
-0.07828	-0.00180
-0.07828	-0.00759
-0.07833	-0.00341
-0.07833	-0.00502
-0.07839	-0.00550
-0.07839	-0.00002
-0.07839	-0.00647
-0.07844	-0.00792
-0.07844	-0.00598
-0.07850	-0.00727
-0.07850	-0.00292
-0.07850	-0.00566
-0.07855	-0.00534
-0.07855	-0.00631
-0.07861	-0.00453
-0.07861	-0.00389
-0.07861	-0.00631
-0.07867	-0.01081
-0.07867	-0.01130
-0.07872	-0.01243
-0.07872	-0.00856
-0.07872	-0.00904
-0.07878	-0.01017
-0.07878	-0.01017
-0.07878	-0.00824
-0.07883	-0.01098
-0.07883	-0.00808
-0.07883	-0.01017
-0.07889	-0.01275
-0.07889	-0.01033
-0.07894	-0.01404
-0.07894	-0.00840
-0.07894	-0.00711
-0.07900	-0.00566
-0.07900	-0.00695
-0.07905	-0.00534
-0.07905	-0.00566
-0.07905	-0.01017
-0.07911	-0.00824
-0.07911	-0.00614
-0.07917	-0.01017
-0.07917	-0.00888
-0.07917	-0.01001
-0.07922	-0.01243
-0.07922	-0.00759
-0.07928	-0.00792
-0.07928	-0.00663
-0.07928	-0.00711
-0.07933	-0.01114
-0.07933	-0.00792
-0.07939	-0.00824
-0.07939	-0.00953
-0.07939	-0.01098
-0.07944	-0.00647
-0.07944	-0.00502
-0.07950	-0.00470
-0.07950	-0.01243
-0.07950	-0.01001
-0.07955	-0.00566
-0.07955	-0.00647
-0.07961	-0.00486
-0.07961	-0.00856
-0.07961	-0.00759
-0.07967	-0.00856
-0.07967	-0.00856
-0.07967	-0.00856
-0.07972	-0.00775
-0.07972	-0.00872
-0.07978	-0.00598
-0.07978	-0.00904
-0.07978	-0.00727
-0.07983	-0.00872
-0.07983	-0.00421
-0.07989	-0.00937
-0.07989	-0.01033
-0.07989	-0.00840
-0.07994	-0.00518
-0.07994	-0.00727
-0.08000	-0.00920
-0.08000	-0.01065
-0.08000	-0.00937
-0.08005	-0.00937
-0.08005	-0.00711
-0.08011	-0.00470
-0.08011	-0.00679
-0.08011	-0.00566
-0.08017	-0.00598
-0.08017	-0.00470
-0.08022	-0.00840
-0.08022	-0.00502
-0.08028	-0.00180
-0.08028	-0.00373
-0.08028	-0.00035
-0.08033	0.00304
-0.08033	0.00271
-0.08033	0.00062
-0.08039	0.00497
-0.08039	0.00642
-0.08044	0.00593
-0.08044	0.00545
-0.08044	0.00207
-0.08050	0.00738
-0.08050	0.00706
-0.08055	0.00239
-0.08055	0.00448
-0.08055	0.00529
-0.08061	0.00545
-0.08061	0.00610
-0.08061	0.00803
-0.08067	0.00593
-0.08067	0.00320
-0.08072	-0.00002
-0.08072	0.00287
-0.08072	-0.00164
-0.08078	0.00110
-0.08078	-0.00051
-0.08083	-0.00051
-0.08083	0.00046
-0.08089	-0.00276
-0.08089	0.00126
-0.08089	-0.00244
-0.08094	-0.00164
-0.08094	-0.00244
-0.08100	-0.00405
-0.08100	-0.00792
-0.08100	-0.00260
-0.08105	-0.00421
-0.08105	-0.00421
-0.08111	-0.00405
-0.08111	-0.00357
-0.08111	-0.00276
-0.08117	-0.00260
-0.08117	-0.00035
-0.08122	-0.00405
-0.08122	0.00014
-0.08122	0.00320
-0.08128	0.00336
-0.08128	0.00706
-0.08133	0.00932
-0.08133	0.00899
-0.08133	0.00851
-0.08139	0.00867
-0.08139	0.01012
-0.08139	0.01334
-0.08144	0.01093
-0.08144	0.01415
-0.08150	0.01302
-0.08150	0.01737
-0.08150	0.01479
-0.08155	0.01866
-0.08155	0.01753
-0.08161	0.01930
-0.08161	0.01962
-0.08167	0.01656
-0.08167	0.01463
-0.08167	0.01592
-0.08172	0.01334
-0.08172	0.01463
-0.08178	0.01077
-0.08178	0.01334
-0.08183	0.01221
-0.08183	0.01221
-0.08183	0.01189
-0.08189	0.01044
-0.08189	0.00706
-0.08194	0.00626
-0.08194	0.00271
-0.08194	0.00046
-0.08200	0.00191
-0.08200	0.00336
-0.08205	0.00320
-0.08205	-0.00131
-0.08205	-0.00115
-0.08211	0.00046
-0.08211	-0.00260
-0.08211	0.00126
-0.08217	-0.00486
-0.08217	-0.00067
-0.08222	-0.00357
-0.08222	-0.00083
-0.08222	-0.00373
-0.08228	0.00046
-0.08228	0.00110
-0.08233	0.00126
-0.08233	0.00432
-0.08233	0.00014
-0.08239	0.00030
-0.08239	0.00126
-0.08244	0.00610
-0.08244	0.00803
-0.08250	0.00706
-0.08250	0.00819
-0.08250	0.00964
-0.08255	0.01093
-0.08255	0.01302
-0.08261	0.00980
-0.08261	0.01238
-0.08261	0.01527
-0.08267	0.01624
-0.08267	0.01769
-0.08272	0.01898
-0.08272	0.01817
-0.08278	0.01866
-0.08278	0.02204
-0.08278	0.01689
-0.08283	0.01366
-0.08283	0.01350
-0.08289	0.01560
-0.08289	0.01383
-0.08289	0.01093
-0.08294	0.01254
-0.08294	0.00690
-0.08300	0.01093
-0.08300	0.00899
-0.08300	0.01221
-0.08305	0.00835
-0.08305	0.00336
-0.08305	0.00690
-0.08311	0.00336
-0.08311	0.00094
-0.08317	-0.00260
-0.08317	-0.00115
-0.08317	-0.00212
-0.08322	0.00126
-0.08322	0.00336
-0.08322	-0.00373
-0.08328	-0.00566
-0.08328	-0.00228
-0.08333	-0.00598
-0.08333	-0.00051
-0.08339	-0.00035
-0.08339	-0.00357
-0.08339	-0.00051
-0.08344	-0.00164
-0.08344	-0.00550
-0.08350	-0.00212
-0.08350	-0.00067
-0.08350	-0.00115
-0.08355	-0.00228
-0.08355	-0.00083
-0.08361	0.00175
-0.08361	0.00513
-0.08361	0.00432
-0.08367	0.00626
-0.08367	0.00529
-0.08372	0.00593
-0.08372	0.00529
-0.08372	0.00658
-0.08378	0.00787
-0.08378	0.00448
-0.08378	0.00819
-0.08383	0.00835
-0.08383	0.00819
-0.08389	0.00706
-0.08389	0.00610
-0.08389	0.00384
-0.08394	0.00593
-0.08394	0.00368
-0.08394	0.00497
-0.08400	0.00207
-0.08400	0.00497
-0.08405	0.00223
-0.08405	0.00046
-0.08405	0.00239
-0.08411	-0.00099
-0.08411	0.00046
-0.08417	-0.00051
-0.08417	-0.00164
-0.08417	-0.00502
-0.08422	-0.00051
-0.08422	0.00255
-0.08428	-0.00421
-0.08428	-0.00341
-0.08428	-0.00582
-0.08433	-0.00260
-0.08433	-0.00325
-0.08439	-0.00582
-0.08439	-0.00582
-0.08439	-0.00486
-0.08444	-0.00421
-0.08444	-0.00631
-0.08450	-0.00518
-0.08450	-0.00341
-0.08450	-0.00888
-0.08455	-0.00470
-0.08455	-0.00534
-0.08461	-0.00470
-0.08461	-0.00502
-0.08461	-0.00647
-0.08467	-0.00405
-0.08467	-0.00341
-0.08467	-0.00808
-0.08472	-0.00276
-0.08472	-0.00292
-0.08478	-0.00470
-0.08478	-0.00631
-0.08478	-0.00679
-0.08483	-0.00470
-0.08483	-0.00453
-0.08483	-0.00212
-0.08489	-0.00341
-0.08489	-0.00647
-0.08494	-0.00437
-0.08494	-0.00647
-0.08500	-0.00308
-0.08500	-0.00228
-0.08500	-0.00502
-0.08505	-0.00502
-0.08505	-0.00067
-0.08511	-0.00647
-0.08511	-0.00759
-0.08511	-0.01001
-0.08517	-0.00888
-0.08517	-0.00759
-0.08522	-0.00759
-0.08522	-0.00582
-0.08522	-0.00743
-0.08528	-0.00566
-0.08528	-0.00872
-0.08533	-0.00985
-0.08533	-0.01194
-0.08533	-0.00631
-0.08539	-0.00727
-0.08539	-0.00534
-0.08544	-0.01081
-0.08544	-0.00808
-0.08544	-0.00711
-0.08550	-0.00792
-0.08550	-0.00502
-0.08550	-0.00679
-0.08555	-0.00840
-0.08555	-0.00647
-0.08555	-0.01065
-0.08561	-0.00775
-0.08561	-0.00695
-0.08561	-0.00566
-0.08567	-0.01291
-0.08567	-0.00180
-0.08572	-0.00663
-0.08572	-0.00808
-0.08572	-0.01033
-0.08578	-0.00743
-0.08578	-0.00598
-0.08583	-0.00631
-0.08583	-0.00824
-0.08589	-0.00888
-0.08589	-0.00904
-0.08589	-0.00727
-0.08594	-0.01178
-0.08594	-0.00775
-0.08600	-0.00663
-0.08600	-0.00824
-0.08600	-0.00598
-0.08605	-0.00453
-0.08605	-0.00470
-0.08611	-0.00534
-0.08611	-0.01049
-0.08611	-0.00759
-0.08617	-0.00711
-0.08617	-0.00582
-0.08617	-0.00598
-0.08622	-0.00743
-0.08622	-0.00389
-0.08628	-0.00405
-0.08628	-0.00985
-0.08628	-0.00808
-0.08633	-0.01001
-0.08633	-0.01017
-0.08633	-0.00711
-0.08639	-0.00824
-0.08639	-0.00453
-0.08644	-0.00711
-0.08644	-0.00856
-0.08644	-0.01210
-0.08650	-0.00775
-0.08650	-0.01033
-0.08650	-0.00824
-0.08655	-0.00985
-0.08655	-0.01001
-0.08661	-0.01114
-0.08661	-0.00888
-0.08661	-0.00969
-0.08667	-0.00711
-0.08667	-0.00953
-0.08672	-0.00244
-0.08672	-0.00824
-0.08672	-0.00051
-0.08678	-0.00582
-0.08678	-0.00518
-0.08683	-0.00824
-0.08683	-0.00808
-0.08683	-0.00470
-0.08689	-0.00389
-0.08689	-0.00647
-0.08694	-0.00147
-0.08694	-0.00727
-0.08694	-0.00695
-0.08700	-0.00373
-0.08700	-0.00518
-0.08700	-0.00373
-0.08705	-0.00131
-0.08705	-0.00341
-0.08711	-0.00276
-0.08711	-0.00292
-0.08711	-0.00212
-0.08717	0.00545
-0.08717	-0.00051
-0.08717	-0.00051
-0.08722	-0.00083
-0.08722	-0.00228
-0.08728	0.00030
-0.08728	-0.00308
-0.08728	-0.00212
-0.08733	-0.00244
-0.08733	-0.00405
-0.08733	-0.00453
-0.08739	-0.00083
-0.08739	-0.00228
-0.08744	-0.00566
-0.08744	-0.00405
-0.08744	-0.00679
-0.08750	-0.00647
-0.08750	-0.00518
-0.08755	-0.00775
-0.08755	-0.00679
-0.08755	-0.00566
-0.08761	-0.00792
-0.08761	-0.00647
-0.08767	-0.00679
-0.08767	-0.00518
-0.08767	-0.00534
-0.08772	-0.00550
-0.08772	-0.00614
-0.08778	-0.00904
-0.08778	-0.00840
-0.08778	-0.00856
-0.08783	-0.00759
-0.08783	-0.00920
-0.08789	-0.00856
-0.08789	-0.00534
-0.08789	-0.00647
-0.08794	-0.00470
-0.08794	-0.00260
-0.08794	-0.00598
-0.08800	-0.00115
-0.08800	0.00062
-0.08805	0.00014
-0.08805	0.00046
-0.08805	0.00448
-0.08811	0.00126
-0.08811	0.00304
-0.08811	0.00126
-0.08817	0.00320
-0.08817	0.00658
-0.08822	0.00336
-0.08822	0.00497
-0.08822	0.00304
-0.08828	0.00448
-0.08828	0.00658
-0.08833	0.00545
-0.08833	0.00722
-0.08833	-0.00051
-0.08839	0.00497
-0.08839	0.00400
-0.08844	-0.00019
-0.08844	-0.00051
-0.08844	0.00110
-0.08850	0.00126
-0.08850	0.00239
-0.08855	0.00191
-0.08855	-0.00373
-0.08855	-0.00502
-0.08861	-0.00614
-0.08861	-0.00775
-0.08867	-0.00711
-0.08867	-0.00502
-0.08867	-0.00325
-0.08872	-0.00502
-0.08872	-0.00872
-0.08878	-0.00792
-0.08878	-0.00888
-0.08878	-0.01114
-0.08883	-0.00969
-0.08883	-0.00582
-0.08883	-0.00904
-0.08889	-0.01243
-0.08889	-0.01017
-0.08889	-0.00937
-0.08894	-0.00421
-0.08894	-0.00759
-0.08900	-0.00357
-0.08900	-0.00405
-0.08900	-0.00550
-0.08905	-0.00405
-0.08905	-0.00373
-0.08911	-0.00357
-0.08911	-0.00550
-0.08911	-0.00292
-0.08917	-0.00051
-0.08917	0.00126
-0.08922	0.00062
-0.08922	0.00159
-0.08922	0.00046
-0.08928	0.00304
-0.08928	0.00014
-0.08933	0.00094
-0.08933	0.00223
-0.08933	0.00271
-0.08939	0.00400
-0.08939	0.00223
-0.08944	0.00384
-0.08944	0.00593
-0.08944	0.00255
-0.08950	0.00271
-0.08950	-0.00067
-0.08955	-0.00180
-0.08955	-0.00115
-0.08955	0.00094
-0.08961	-0.00212
-0.08961	-0.00308
-0.08961	-0.00373
-0.08967	-0.00486
-0.08967	-0.00437
-0.08972	-0.00470
-0.08972	-0.00614
-0.08972	-0.00743
-0.08978	-0.00470
-0.08978	-0.00405
-0.08978	-0.00759
-0.08983	-0.00792
-0.08983	-0.00985
-0.08989	-0.00856
-0.08989	-0.01049
-0.08994	-0.01162
-0.08994	-0.01146
-0.08994	-0.00904
-0.09000	-0.00985
-0.09000	-0.00985
-0.09005	-0.01194
-0.09005	-0.00985
-0.09005	-0.00808
-0.09011	-0.00389
-0.09011	-0.00598
-0.09017	-0.00647
-0.09017	-0.00985
-0.09017	-0.00759
-0.09022	-0.00550
-0.09022	-0.00759
-0.09028	-0.00711
-0.09028	-0.00453
-0.09028	-0.00292
-0.09033	-0.00614
-0.09033	-0.00663
-0.09039	-0.00228
-0.09039	0.00175
-0.09039	-0.00647
-0.09044	-0.00663
-0.09044	-0.00550
-0.09044	-0.00647
-0.09050	-0.00775
-0.09050	-0.00518
-0.09055	-0.00647
-0.09055	-0.00325
-0.09055	-0.00325
-0.09061	-0.00437
-0.09061	-0.00470
-0.09067	-0.00824
-0.09067	-0.00357
-0.09067	-0.00405
-0.09072	-0.00647
-0.09072	-0.00937
-0.09078	-0.00679
-0.09078	-0.00566
-0.09078	-0.01146
-0.09083	-0.00840
-0.09083	-0.00953
-0.09089	-0.01146
-0.09089	-0.01307
-0.09089	-0.01420
-0.09094	-0.01017
-0.09094	-0.00856
-0.09100	-0.00840
-0.09100	-0.00792
-0.09100	-0.01146
-0.09105	-0.00904
-0.09105	-0.01178
-0.09111	-0.01387
-0.09111	-0.01098
-0.09111	-0.01081
-0.09117	-0.00856
-0.09117	-0.01081
-0.09122	-0.01130
-0.09122	-0.01194
-0.09122	-0.01259
-0.09128	-0.01371
-0.09128	-0.01081
-0.09133	-0.01146
-0.09133	-0.00856
-0.09133	-0.01049
-0.09139	-0.01017
-0.09139	-0.01500
-0.09139	-0.01387
-0.09144	-0.00904
-0.09144	-0.01033
-0.09150	-0.01017
-0.09150	-0.00631
-0.09155	-0.00647
-0.09155	-0.00647
-0.09155	-0.00792
-0.09161	-0.00937
-0.09161	-0.01275
-0.09167	-0.00727
-0.09167	-0.01259
-0.09172	-0.00502
-0.09172	-0.01146
-0.09172	-0.01194
-0.09178	-0.01307
-0.09178	-0.01001
-0.09183	-0.01307
-0.09183	-0.01162
-0.09183	-0.01065
-0.09189	-0.00985
-0.09189	-0.00985
-0.09194	-0.00614
-0.09194	-0.00824
-0.09194	-0.01098
-0.09200	-0.01098
-0.09200	-0.00872
-0.09205	-0.00920
-0.09205	-0.00953
-0.09205	-0.01162
-0.09211	-0.01291
-0.09211	-0.01468
-0.09217	-0.01194
-0.09217	-0.00727
-0.09217	-0.00904
-0.09222	-0.00920
-0.09222	-0.00856
-0.09228	-0.00695
-0.09228	-0.01001
-0.09228	-0.00937
-0.09233	-0.01371
-0.09233	-0.00824
-0.09239	-0.01404
-0.09239	-0.01194
-0.09239	-0.00904
-0.09244	-0.00937
-0.09244	-0.00953
-0.09250	-0.00743
-0.09250	-0.01114
-0.09255	-0.01081
-0.09255	-0.00486
-0.09255	-0.01049
-0.09261	-0.00969
-0.09261	-0.01210
-0.09267	-0.00840
-0.09267	-0.00953
-0.09267	-0.00856
-0.09272	-0.01001
-0.09272	-0.01178
-0.09278	-0.00888
-0.09278	-0.01081
-0.09283	-0.00920
-0.09283	-0.00985
-0.09283	-0.00888
-0.09289	-0.01017
-0.09289	-0.01033
-0.09294	-0.00872
-0.09294	-0.00904
-0.09294	-0.00920
-0.09300	-0.00969
-0.09300	-0.01049
-0.09300	-0.01516
-0.09305	-0.01307
-0.09305	-0.01194
-0.09311	-0.01162
-0.09311	-0.01130
-0.09311	-0.01178
-0.09317	-0.00969
-0.09317	-0.01114
-0.09317	-0.01307
-0.09322	-0.00985
-0.09322	-0.01130
-0.09328	-0.00953
-0.09328	-0.00727
-0.09333	-0.01033
-0.09333	-0.00824
-0.09333	-0.00953
-0.09339	-0.00663
-0.09339	-0.00792
-0.09344	-0.01001
-0.09344	-0.00920
-0.09344	-0.00985
-0.09350	-0.00775
-0.09350	-0.00808
-0.09355	-0.00711
-0.09355	-0.00405
-0.09355	-0.01114
-0.09361	-0.00614
-0.09361	-0.00566
-0.09367	-0.00614
-0.09367	-0.00341
-0.09367	-0.00824
-0.09372	-0.00614
-0.09372	-0.00840
-0.09378	-0.00840
-0.09378	-0.00856
-0.09378	-0.00920
-0.09383	-0.00663
-0.09383	-0.00792
-0.09383	-0.00598
-0.09389	-0.00711
-0.09389	-0.00631
-0.09394	-0.00292
-0.09394	-0.00711
-0.09394	-0.01017
-0.09400	-0.00647
-0.09400	-0.00631
-0.09400	-0.00470
-0.09405	-0.00260
-0.09405	-0.00792
-0.09411	-0.00357
-0.09411	-0.00341
-0.09411	-0.00502
-0.09417	-0.00920
-0.09417	-0.00904
-0.09422	-0.01307
-0.09422	-0.01001
-0.09422	-0.01114
-0.09428	-0.01049
-0.09428	-0.01146
-0.09433	-0.00888
-0.09433	-0.01323
-0.09433	-0.00953
-0.09439	-0.00920
-0.09439	-0.01065
-0.09444	-0.01098
-0.09444	-0.01098
-0.09444	-0.00953
-0.09450	-0.01017
-0.09450	-0.01339
-0.09455	-0.00824
-0.09455	-0.00953
-0.09455	-0.01114
-0.09461	-0.00470
-0.09461	-0.00389
-0.09467	-0.00470
-0.09467	-0.00663
-0.09467	-0.00566
-0.09472	-0.00598
-0.09472	-0.00373
-0.09472	-0.00775
-0.09478	-0.00341
-0.09478	-0.00679
-0.09483	-0.00421
-0.09483	-0.00550
-0.09483	-0.00308
-0.09489	0.00271
-0.09489	-0.00308
-0.09494	-0.00373
-0.09494	-0.00067
-0.09500	-0.00228
-0.09500	-0.00131
-0.09500	-0.00292
-0.09505	-0.00147
-0.09505	-0.00196
-0.09511	-0.00405
-0.09511	-0.00341
-0.09511	-0.00035
-0.09517	-0.00405
-0.09517	-0.00228
-0.09522	-0.00115
-0.09522	-0.00147
-0.09522	-0.00614
-0.09528	-0.00292
-0.09528	-0.00550
-0.09533	-0.00985
-0.09533	-0.00792
-0.09533	-0.00985
-0.09539	-0.00679
-0.09539	-0.00856
-0.09539	-0.00502
-0.09544	-0.01162
-0.09544	-0.01549
-0.09550	-0.01001
-0.09550	-0.00711
-0.09550	-0.00904
-0.09555	-0.00856
-0.09555	-0.00872
-0.09555	-0.00663
-0.09561	-0.00840
-0.09561	-0.00502
-0.09561	-0.00775
-0.09567	-0.01114
-0.09567	-0.00453
-0.09572	-0.00953
-0.09572	-0.00437
-0.09572	-0.00582
-0.09578	-0.00534
-0.09578	-0.00341
-0.09583	-0.00019
-0.09583	-0.00325
-0.09583	-0.00647
-0.09589	-0.00502
-0.09589	-0.00212
-0.09594	-0.00083
-0.09594	-0.00115
-0.09594	-0.00019
-0.09600	-0.00196
-0.09600	-0.00131
-0.09605	-0.00002
-0.09605	0.00126
-0.09605	0.00030
-0.09611	-0.00196
-0.09611	-0.00196
-0.09617	-0.00196
-0.09617	-0.00147
-0.09617	-0.00244
-0.09622	-0.00453
-0.09622	-0.00502
-0.09622	-0.00614
-0.09628	-0.00292
-0.09628	-0.00663
-0.09633	-0.00486
-0.09633	-0.00308
-0.09633	-0.00067
-0.09639	-0.00373
-0.09639	-0.00421
-0.09639	-0.00373
-0.09644	-0.00502
-0.09644	-0.00582
-0.09644	-0.00824
-0.09650	-0.00840
-0.09650	-0.00631
-0.09655	-0.00647
-0.09655	-0.00582
-0.09655	-0.00389
-0.09661	-0.01001
-0.09661	-0.00566
-0.09667	-0.01033
-0.09667	-0.00872
-0.09667	-0.00711
-0.09672	-0.00840
-0.09672	-0.00647
-0.09678	-0.00904
-0.09678	-0.00631
-0.09678	-0.00711
-0.09683	-0.00920
-0.09683	-0.00663
-0.09689	-0.00775
-0.09689	-0.00920
-0.09689	-0.00888
-0.09694	-0.00985
-0.09694	-0.00470
-0.09700	-0.00357
-0.09700	-0.00663
-0.09700	-0.00260
-0.09705	-0.00598
-0.09705	-0.00325
-0.09705	-0.00598
-0.09711	-0.00341
-0.09711	-0.00566
-0.09717	-0.00405
-0.09717	-0.00614
-0.09717	-0.00824
-0.09722	-0.00470
-0.09722	-0.00647
-0.09722	-0.00421
-0.09728	-0.00631
-0.09728	-0.00437
-0.09728	-0.00453
-0.09733	-0.00695
-0.09733	-0.00679
-0.09739	-0.00727
-0.09739	-0.00631
-0.09744	-0.00453
-0.09744	-0.00856
-0.09744	-0.00775
-0.09750	-0.00856
-0.09750	-0.00631
-0.09755	-0.00631
-0.09755	-0.00502
-0.09755	-0.00840
-0.09761	-0.00631
-0.09761	-0.00679
-0.09767	-0.00904
-0.09767	-0.00421
-0.09767	-0.00695
-0.09772	-0.00759
-0.09772	-0.00937
-0.09772	-0.01307
-0.09778	-0.01452
-0.09778	-0.01065
-0.09783	-0.00904
-0.09783	-0.01001
-0.09783	-0.00904
-0.09789	-0.00920
-0.09789	-0.00775
-0.09794	-0.00566
-0.09794	-0.00775
-0.09794	-0.00840
-0.09800	-0.00502
-0.09800	-0.00856
-0.09800	-0.00598
-0.09805	-0.01226
-0.09805	-0.00824
-0.09805	-0.00727
-0.09811	-0.00775
-0.09811	-0.01033
-0.09817	-0.01178
-0.09817	-0.01323
-0.09822	-0.00856
-0.09822	-0.01033
-0.09822	-0.01017
-0.09828	-0.00904
-0.09828	-0.00920
-0.09833	-0.00808
-0.09833	-0.00937
-0.09833	-0.00792
-0.09839	-0.00969
-0.09839	-0.00614
-0.09844	-0.00808
-0.09844	-0.00598
-0.09844	-0.00775
-0.09850	-0.01226
-0.09850	-0.00937
-0.09855	-0.01323
-0.09855	-0.00840
-0.09855	-0.00614
-0.09861	-0.00486
-0.09861	-0.00518
-0.09867	-0.01049
-0.09867	-0.00872
-0.09867	-0.01210
-0.09872	-0.01114
-0.09872	-0.00969
-0.09872	-0.01210
-0.09878	-0.00824
-0.09878	-0.01017
-0.09883	-0.01001
-0.09883	-0.01210
-0.09883	-0.00904
-0.09889	-0.00582
-0.09889	-0.01226
-0.09889	-0.00598
-0.09894	-0.00856
-0.09894	-0.00775
-0.09900	-0.00808
-0.09900	-0.00695
-0.09900	-0.00920
-0.09905	-0.01098
-0.09905	-0.01033
-0.09911	-0.00534
-0.09911	-0.00743
-0.09911	-0.00534
-0.09917	-0.00502
-0.09917	-0.00647
-0.09922	-0.00840
-0.09922	-0.00904
-0.09922	-0.00953
-0.09928	-0.01114
-0.09928	-0.00743
-0.09933	-0.00969
-0.09933	-0.00808
-0.09933	-0.00888
-0.09939	-0.00727
-0.09939	-0.00276
-0.09944	-0.00808
-0.09944	-0.00872
-0.09944	-0.00566
-0.09950	-0.00937
-0.09950	-0.00566
-0.09955	-0.00840
-0.09955	-0.01017
-0.09955	-0.01033
-0.09961	-0.00759
-0.09961	-0.00727
-0.09967	-0.00502
-0.09967	-0.00824
-0.09967	-0.00389
-0.09972	-0.00824
-0.09972	-0.00598
-0.09972	-0.00695
-0.09978	-0.00824
-0.09978	-0.00631
-0.09983	-0.00775
-0.09983	-0.01098
-0.09983	-0.00808
-0.09989	-0.00840
-0.09989	-0.00824
-0.09994	-0.01162
-0.09994	-0.00856
-0.10000	-0.00743
-0.10000	-0.00888
-0.10000	-0.00953
-0.10005	-0.00969
-0.10005	-0.00743
-0.10011	-0.00614
-0.10011	-0.00711
-0.10011	-0.01017
-0.10017	-0.00582
-0.10017	-0.00341
-0.10022	-0.00920
-0.10022	-0.00775
-0.10022	-0.00308
-0.10028	-0.00341
-0.10028	-0.00904
-0.10033	-0.00679
-0.10033	-0.00453
-0.10033	-0.00341
-0.10039	-0.00147
-0.10039	-0.00212
-0.10044	-0.00051
-0.10044	-0.00953
-0.10044	-0.00582
-0.10050	-0.00308
-0.10050	-0.00147
-0.10055	-0.00695
-0.10055	-0.00244
-0.10055	-0.00598
-0.10061	-0.00453
-0.10061	-0.00308
-0.10061	-0.00244
-0.10067	-0.00421
-0.10067	-0.00631
-0.10072	-0.00019
-0.10072	-0.00292
-0.10072	-0.00180
-0.10078	-0.00164
-0.10078	-0.00260
-0.10083	-0.00341
-0.10083	-0.00260
-0.10089	-0.00486
-0.10089	-0.00582
-0.10089	-0.00260
-0.10094	-0.00824
-0.10094	-0.00453
-0.10100	-0.00759
-0.10100	-0.00437
-0.10100	-0.00325
-0.10105	-0.00534
-0.10105	-0.00969
-0.10111	-0.00647
-0.10111	-0.00711
-0.10111	-0.00582
-0.10117	-0.00937
-0.10117	-0.00985
-0.10122	-0.01017
-0.10122	-0.00808
-0.10122	-0.00631
-0.10128	-0.00840
-0.10128	-0.00953
-0.10128	-0.00566
-0.10133	-0.00856
-0.10133	-0.00437
-0.10139	-0.00920
-0.10139	-0.00647
-0.10139	-0.00421
-0.10144	-0.00663
-0.10144	-0.00276
-0.10150	-0.00147
-0.10150	-0.00566
-0.10150	-0.00421
-0.10155	-0.00180
-0.10155	-0.00083
-0.10161	0.00014
-0.10161	0.00142
-0.10167	0.00078
-0.10167	-0.00260
-0.10167	-0.00405
-0.10172	-0.00164
-0.10172	-0.00325
-0.10178	-0.00180
-0.10178	-0.00470
-0.10183	-0.00147
-0.10183	-0.00164
-0.10183	-0.00212
-0.10189	-0.00244
-0.10189	-0.00019
-0.10194	-0.00566
-0.10194	-0.00051
-0.10194	-0.00373
-0.10200	-0.00373
-0.10200	-0.00534
-0.10205	-0.00566
-0.10205	-0.00308
-0.10205	-0.00002
-0.10211	-0.00631
-0.10211	-0.00937
-0.10217	-0.00792
-0.10217	-0.00631
-0.10217	-0.00453
-0.10222	-0.00904
-0.10222	-0.00470
-0.10228	-0.00582
-0.10228	-0.00920
-0.10228	-0.00792
-0.10233	-0.00743
-0.10233	-0.00582
-0.10239	-0.00792
-0.10239	-0.00373
-0.10239	-0.00647
-0.10244	-0.00582
-0.10244	-0.00614
-0.10250	-0.00582
-0.10250	-0.00421
-0.10255	-0.00276
-0.10255	-0.00695
-0.10255	-0.00260
-0.10261	-0.00115
-0.10261	0.00046
-0.10267	-0.00083
-0.10267	-0.00244
-0.10267	0.00014
-0.10272	0.00014
-0.10272	0.00191
-0.10278	0.00094
-0.10278	-0.00164
-0.10283	-0.00276
-0.10283	-0.00115
-0.10283	-0.00196
-0.10289	-0.00486
-0.10289	-0.00405
-0.10289	-0.00067
-0.10294	-0.00099
-0.10294	-0.00051
-0.10300	0.00159
-0.10300	-0.00115
-0.10300	-0.00453
-0.10305	-0.00115
-0.10305	-0.00244
-0.10311	-0.00180
-0.10311	-0.00502
-0.10311	-0.00276
-0.10317	-0.00647
-0.10317	-0.00711
-0.10322	-0.00856
-0.10322	-0.00453
-0.10322	-0.00518
-0.10328	-0.00292
-0.10328	-0.00598
-0.10333	-0.00727
-0.10333	-0.00614
-0.10333	-0.00856
-0.10339	-0.00743
-0.10339	-0.00824
-0.10344	-0.00840
-0.10344	-0.01210
-0.10344	-0.01468
-0.10350	-0.00856
-0.10350	-0.00953
-0.10355	-0.01178
-0.10355	-0.00985
-0.10355	-0.00647
-0.10361	-0.00614
-0.10361	-0.01017
-0.10367	-0.00824
-0.10367	-0.00631
-0.10367	-0.00840
-0.10372	-0.00840
-0.10372	-0.00614
-0.10378	-0.00292
-0.10378	-0.00470
-0.10378	-0.00631
-0.10383	-0.00808
-0.10383	-0.00775
-0.10389	-0.00437
-0.10389	-0.00341
-0.10389	-0.00711
-0.10394	-0.00920
-0.10394	-0.00840
-0.10394	-0.00824
-0.10400	-0.00888
-0.10400	-0.00647
-0.10405	-0.00840
-0.10405	-0.00711
-0.10405	-0.00743
-0.10411	-0.00614
-0.10411	-0.00856
-0.10417	-0.00518
-0.10417	-0.00904
-0.10417	-0.00711
-0.10422	-0.00647
-0.10422	-0.00727
-0.10428	-0.00759
-0.10428	-0.00872
-0.10428	-0.00679
-0.10433	-0.00437
-0.10433	-0.00486
-0.10439	-0.00808
-0.10439	-0.00598
-0.10439	-0.00663
-0.10444	-0.00808
-0.10444	-0.00759
-0.10450	-0.01243
-0.10450	-0.01098
-0.10450	-0.01001
-0.10455	-0.00792
-0.10455	-0.00759
-0.10461	-0.01033
-0.10461	-0.01033
-0.10461	-0.00743
-0.10467	-0.00550
-0.10467	-0.00373
-0.10467	-0.00953
-0.10472	-0.01065
-0.10472	-0.00840
-0.10478	-0.00405
-0.10478	-0.00840
-0.10478	-0.00486
-0.10483	-0.00421
-0.10483	-0.00582
-0.10483	-0.00856
-0.10489	-0.00792
-0.10489	-0.01146
-0.10494	-0.00824
-0.10494	-0.00985
-0.10500	-0.01259
-0.10500	-0.00582
-0.10500	-0.00727
-0.10505	-0.01130
-0.10505	-0.01081
-0.10511	-0.00711
-0.10511	-0.00969
-0.10511	-0.01275
-0.10517	-0.01436
-0.10517	-0.01114
-0.10522	-0.00437
-0.10522	-0.00856
-0.10522	-0.00808
-0.10528	-0.01114
-0.10528	-0.00856
-0.10533	-0.00743
-0.10533	-0.01017
-0.10533	-0.00759
-0.10539	-0.00824
-0.10539	-0.01049
-0.10544	-0.00775
-0.10544	-0.00647
-0.10544	-0.00953
-0.10550	-0.00759
-0.10550	-0.01194
-0.10550	-0.00937
-0.10555	-0.01065
-0.10555	-0.00985
-0.10555	-0.01033
-0.10561	-0.01114
-0.10561	-0.00969
-0.10561	-0.00808
-0.10567	-0.00824
-0.10567	-0.00840
-0.10572	-0.00824
-0.10572	-0.01017
-0.10578	-0.01114
-0.10578	-0.00502
-0.10578	-0.00840
-0.10583	-0.00566
-0.10583	-0.00711
-0.10589	-0.01114
-0.10589	-0.01371
-0.10589	-0.01146
-0.10594	-0.00614
-0.10594	-0.00550
-0.10600	-0.00550
-0.10600	-0.00566
-0.10600	-0.00743
-0.10605	-0.00937
-0.10605	-0.00824
-0.10611	-0.00824
-0.10611	-0.01146
-0.10611	-0.00872
-0.10617	-0.00775
-0.10617	-0.00582
-0.10622	-0.00953
-0.10622	-0.00711
-0.10622	-0.00695
-0.10628	-0.00470
-0.10628	-0.00759
-0.10628	-0.00856
-0.10633	-0.01098
-0.10633	-0.00614
-0.10639	-0.00775
-0.10639	-0.01162
-0.10639	-0.00695
-0.10644	-0.00840
-0.10644	-0.01001
-0.10644	-0.01065
-0.10650	-0.01226
-0.10650	-0.00566
-0.10650	-0.01081
-0.10655	-0.00824
-0.10655	-0.00743
-0.10661	-0.00888
-0.10661	-0.00808
-0.10667	-0.01130
-0.10667	-0.01259
-0.10667	-0.00953
-0.10672	-0.01226
-0.10672	-0.01275
-0.10678	-0.00888
-0.10678	-0.00920
-0.10678	-0.00953
-0.10683	-0.00856
-0.10683	-0.01065
-0.10689	-0.00727
-0.10689	-0.00969
-0.10689	-0.00518
-0.10694	-0.00486
-0.10694	-0.00824
-0.10694	-0.00614
-0.10700	-0.00792
-0.10700	-0.00647
-0.10705	-0.00759
-0.10705	-0.00824
-0.10705	-0.00292
-0.10711	-0.00518
-0.10711	-0.00872
-0.10717	-0.00486
-0.10717	-0.00631
-0.10717	-0.00389
-0.10722	-0.00534
-0.10722	-0.00389
-0.10722	-0.00727
-0.10728	-0.00743
-0.10728	-0.00566
-0.10728	-0.00341
-0.10733	-0.00405
-0.10733	-0.00631
-0.10739	-0.00840
-0.10739	-0.00792
-0.10739	-0.00582
-0.10744	-0.00341
-0.10744	-0.00389
-0.10750	-0.00937
-0.10750	-0.00743
-0.10755	-0.00904
-0.10755	-0.00598
-0.10755	-0.00663
-0.10761	-0.00840
-0.10761	-0.00631
-0.10767	-0.00679
-0.10767	-0.00550
-0.10767	-0.00502
-0.10772	-0.00808
-0.10772	-0.01307
-0.10772	-0.01033
-0.10778	-0.01081
-0.10778	-0.00953
-0.10783	-0.00743
-0.10783	-0.00775
-0.10783	-0.00663
-0.10789	-0.00566
-0.10789	-0.01033
-0.10794	-0.00341
-0.10794	-0.00614
-0.10794	-0.00453
-0.10800	-0.00614
-0.10800	-0.00631
-0.10800	-0.00775
-0.10805	-0.00453
-0.10805	-0.01049
-0.10811	-0.00759
-0.10811	-0.00711
-0.10811	-0.00453
-0.10817	-0.00534
-0.10817	-0.00502
-0.10822	-0.00711
-0.10822	-0.00663
-0.10822	-0.00743
-0.10828	-0.00550
-0.10828	-0.00518
-0.10833	-0.00292
-0.10833	-0.00518
-0.10839	-0.00775
-0.10839	-0.00550
-0.10839	-0.00727
-0.10844	-0.00582
-0.10844	-0.00663
-0.10850	-0.00453
-0.10850	-0.00325
-0.10850	-0.00631
-0.10855	-0.00647
-0.10855	-0.00582
-0.10861	-0.00840
-0.10861	-0.00373
-0.10861	-0.00647
-0.10867	-0.00679
-0.10867	-0.01017
-0.10867	-0.00695
-0.10872	-0.00711
-0.10872	-0.00953
-0.10878	-0.00840
-0.10878	-0.00872
-0.10878	-0.00598
-0.10883	-0.00502
-0.10883	-0.01339
-0.10883	-0.00534
-0.10889	-0.01065
-0.10889	-0.00920
-0.10894	-0.00550
-0.10894	-0.00969
-0.10894	-0.00920
-0.10900	-0.01291
-0.10900	-0.01033
-0.10905	-0.00904
-0.10905	-0.01098
-0.10911	-0.01049
-0.10911	-0.00824
-0.10911	-0.00631
-0.10917	-0.01049
-0.10917	-0.00695
-0.10922	-0.00792
-0.10922	-0.00647
-0.10922	-0.00872
-0.10928	-0.00502
-0.10928	-0.00679
-0.10933	-0.00421
-0.10933	-0.00759
-0.10933	-0.00325
-0.10939	-0.00792
-0.10939	-0.00759
-0.10944	-0.00534
-0.10944	-0.00679
-0.10944	-0.00453
-0.10950	-0.00808
-0.10950	-0.00969
-0.10955	-0.00904
-0.10955	-0.00775
-0.10955	-0.00470
-0.10961	-0.00953
-0.10961	-0.00840
-0.10967	-0.01146
-0.10967	-0.00582
-0.10967	-0.00904
-0.10972	-0.00775
-0.10972	-0.00759
-0.10978	-0.00647
-0.10978	-0.00695
-0.10978	-0.00582
-0.10983	-0.00775
-0.10983	-0.00486
-0.10989	-0.01194
-0.10989	-0.01162
-0.10994	-0.00840
-0.10994	-0.00888
-0.10994	-0.01114
-0.11000	-0.00920
-0.11000	-0.00872
-0.11005	-0.00695
-0.11005	-0.00953
-0.11005	-0.01114
-0.11011	-0.00711
-0.11011	-0.00727
-0.11017	-0.00598
-0.11017	-0.01098
-0.11017	-0.00920
-0.11022	-0.01114
-0.11022	-0.00792
-0.11028	-0.00904
-0.11028	-0.01114
-0.11028	-0.00792
-0.11033	-0.01081
-0.11033	-0.01065
-0.11039	-0.01065
-0.11039	-0.01194
-0.11039	-0.00824
-0.11044	-0.01049
-0.11044	-0.01114
-0.11044	-0.00325
-0.11050	-0.00614
-0.11050	-0.00840
-0.11055	-0.00808
-0.11055	-0.00888
-0.11055	-0.00872
-0.11061	-0.00775
-0.11061	-0.00518
-0.11067	-0.00614
-0.11067	-0.01114
-0.11067	-0.01178
-0.11072	-0.01098
-0.11072	-0.01049
-0.11078	-0.00969
-0.11078	-0.01404
-0.11083	-0.01001
-0.11083	-0.00727
-0.11083	-0.00727
-0.11089	-0.00856
-0.11089	-0.01243
-0.11094	-0.00872
-0.11094	-0.00888
-0.11094	-0.00904
-0.11100	-0.01210
-0.11100	-0.01001
-0.11105	-0.00969
-0.11105	-0.00904
-0.11105	-0.00743
-0.11111	-0.00502
-0.11111	-0.00582
-0.11117	-0.01516
-0.11117	-0.01178
-0.11117	-0.01098
-0.11122	-0.00920
-0.11122	-0.00856
-0.11128	-0.00824
-0.11128	-0.00904
-0.11128	-0.00953
-0.11133	-0.01323
-0.11133	-0.01081
-0.11139	-0.00904
-0.11139	-0.01033
-0.11139	-0.00727
-0.11144	-0.00969
-0.11144	-0.01098
-0.11150	-0.00904
-0.11150	-0.01146
-0.11155	-0.00969
-0.11155	-0.01259
-0.11161	-0.01001
-0.11161	-0.01226
-0.11161	-0.01017
-0.11167	-0.01243
-0.11167	-0.00727
-0.11172	-0.00824
-0.11172	-0.01001
-0.11178	-0.00872
-0.11178	-0.00985
-0.11178	-0.01452
-0.11183	-0.01098
-0.11183	-0.01436
-0.11189	-0.01130
-0.11189	-0.00920
-0.11189	-0.01371
-0.11194	-0.01243
-0.11194	-0.01098
-0.11200	-0.01098
-0.11200	-0.01162
-0.11200	-0.01114
-0.11205	-0.01178
-0.11205	-0.01243
-0.11211	-0.00969
-0.11211	-0.01243
-0.11211	-0.01146
-0.11217	-0.00872
-0.11217	-0.01146
-0.11222	-0.01226
-0.11222	-0.01162
-0.11222	-0.01436
-0.11228	-0.01130
-0.11228	-0.01323
-0.11228	-0.01323
-0.11233	-0.01081
-0.11233	-0.00824
-0.11239	-0.01307
-0.11239	-0.01226
-0.11244	-0.01243
-0.11244	-0.01178
-0.11244	-0.01162
-0.11250	-0.01114
-0.11250	-0.00792
-0.11255	-0.01194
-0.11255	-0.00631
-0.11261	-0.01291
-0.11261	-0.00985
-0.11261	-0.00679
-0.11267	-0.01162
-0.11267	-0.00872
-0.11272	-0.00969
-0.11272	-0.00792
-0.11272	-0.00904
-0.11278	-0.01259
-0.11278	-0.01049
-0.11283	-0.00727
-0.11283	-0.00695
-0.11283	-0.00792
-0.11289	-0.00582
-0.11289	-0.00920
-0.11294	-0.00792
-0.11294	-0.00969
-0.11294	-0.00824
-0.11300	-0.00663
-0.11300	-0.00631
-0.11305	-0.00695
-0.11305	-0.00792
-0.11305	-0.01081
-0.11311	-0.01001
-0.11311	-0.01323
-0.11311	-0.00904
-0.11317	-0.01130
-0.11317	-0.01065
-0.11322	-0.01033
-0.11322	-0.01033
-0.11328	-0.00937
-0.11328	-0.01259
-0.11328	-0.01001
-0.11333	-0.00953
-0.11333	-0.00920
-0.11339	-0.01581
-0.11339	-0.00937
-0.11339	-0.01001
-0.11344	-0.01162
-0.11344	-0.01210
-0.11350	-0.00985
-0.11350	-0.01194
-0.11350	-0.01162
-0.11355	-0.01275
-0.11355	-0.01210
-0.11361	-0.00856
-0.11361	-0.00969
-0.11367	-0.00808
-0.11367	-0.00920
-0.11367	-0.01114
-0.11372	-0.00759
-0.11372	-0.00969
-0.11378	-0.00534
-0.11378	-0.00920
-0.11378	-0.00711
-0.11383	-0.01081
-0.11383	-0.01065
-0.11383	-0.01291
-0.11389	-0.00953
-0.11389	-0.01146
-0.11389	-0.00389
-0.11394	-0.00808
-0.11394	-0.00953
-0.11400	-0.01146
-0.11400	-0.00663
-0.11400	-0.01081
-0.11405	-0.00937
-0.11405	-0.00775
-0.11411	-0.00856
-0.11411	-0.01001
-0.11417	-0.00598
-0.11417	-0.00969
-0.11417	-0.00904
-0.11422	-0.00743
-0.11422	-0.00872
-0.11428	-0.00566
-0.11428	-0.01114
-0.11428	-0.01210
-0.11433	-0.01355
-0.11433	-0.01033
-0.11439	-0.00904
-0.11439	-0.00695
-0.11439	-0.00953
-0.11444	-0.01017
-0.11444	-0.00920
-0.11450	-0.01017
-0.11450	-0.01033
-0.11450	-0.01114
-0.11455	-0.01049
-0.11455	-0.01098
-0.11461	-0.01307
-0.11461	-0.00872
-0.11461	-0.01226
-0.11467	-0.01049
-0.11467	-0.00824
-0.11467	-0.01001
-0.11472	-0.00647
-0.11472	-0.00518
-0.11472	-0.01436
-0.11478	-0.00953
-0.11478	-0.00985
-0.11483	-0.00759
-0.11483	-0.00904
-0.11489	-0.00904
-0.11489	-0.00920
-0.11489	-0.00437
-0.11494	-0.00647
-0.11494	-0.01178
-0.11500	-0.00969
-0.11500	-0.00631
-0.11500	-0.00518
-0.11505	-0.00856
-0.11505	-0.01081
-0.11511	-0.00711
-0.11511	-0.00840
-0.11511	-0.00953
-0.11517	-0.00953
-0.11517	-0.00679
-0.11522	-0.00614
-0.11522	-0.01017
-0.11528	-0.00904
-0.11528	-0.01065
-0.11528	-0.00759
-0.11533	-0.00920
-0.11533	-0.01339
-0.11539	-0.01081
-0.11539	-0.01226
-0.11539	-0.00614
-0.11544	-0.00614
-0.11544	-0.00582
-0.11544	-0.00888
-0.11550	-0.00775
-0.11550	-0.00775
-0.11550	-0.01323
-0.11555	-0.00888
-0.11555	-0.01114
-0.11561	-0.01307
-0.11561	-0.00824
-0.11561	-0.01259
-0.11567	-0.00920
-0.11567	-0.00904
-0.11567	-0.01017
-0.11572	-0.01017
-0.11572	-0.01033
-0.11578	-0.00808
-0.11578	-0.01146
-0.11583	-0.00985
-0.11583	-0.00759
-0.11583	-0.01033
-0.11589	-0.01404
-0.11589	-0.00759
-0.11594	-0.01130
-0.11594	-0.00920
-0.11594	-0.01259
-0.11600	-0.01017
-0.11600	-0.00647
-0.11605	-0.00631
-0.11605	-0.00824
-0.11605	-0.01017
-0.11611	-0.00937
-0.11611	-0.00792
-0.11617	-0.01114
-0.11617	-0.01114
-0.11617	-0.00872
-0.11622	-0.01033
-0.11622	-0.01259
-0.11622	-0.00856
-0.11628	-0.00792
-0.11628	-0.01065
-0.11633	-0.01259
-0.11633	-0.00937
-0.11633	-0.01726
-0.11639	-0.00647
-0.11639	-0.00856
-0.11639	-0.00888
-0.11644	-0.01130
-0.11644	-0.01001
-0.11644	-0.01436
-0.11650	-0.00631
-0.11650	-0.01226
-0.11655	-0.01436
-0.11655	-0.00840
-0.11655	-0.00840
-0.11661	-0.00792
-0.11661	-0.00840
-0.11667	-0.01307
-0.11667	-0.01275
-0.11672	-0.01259
-0.11672	-0.01049
-0.11672	-0.00888
-0.11678	-0.01162
-0.11678	-0.01146
-0.11683	-0.00759
-0.11683	-0.00888
-0.11683	-0.00904
-0.11689	-0.01114
-0.11689	-0.00759
-0.11694	-0.00840
-0.11694	-0.01001
-0.11694	-0.00824
-0.11700	-0.00953
-0.11700	-0.01098
-0.11705	-0.01017
-0.11705	-0.00792
-0.11705	-0.01226
-0.11711	-0.01033
-0.11711	-0.00953
-0.11711	-0.00840
-0.11717	-0.00904
-0.11717	-0.01323
-0.11722	-0.01162
-0.11722	-0.01178
-0.11722	-0.00985
-0.11728	-0.01436
-0.11728	-0.00840
-0.11728	-0.00969
-0.11733	-0.00743
-0.11733	-0.00840
-0.11739	-0.01178
-0.11739	-0.01033
-0.11739	-0.00792
-0.11744	-0.00840
-0.11744	-0.00920
-0.11750	-0.01017
-0.11750	-0.01130
-0.11755	-0.01081
-0.11755	-0.01226
-0.11755	-0.01033
-0.11761	-0.00792
-0.11761	-0.00679
-0.11767	-0.01130
-0.11767	-0.01162
-0.11767	-0.01323
-0.11772	-0.01017
-0.11772	-0.00759
-0.11778	-0.01001
-0.11778	-0.01114
-0.11778	-0.01806
-0.11783	-0.01259
-0.11783	-0.01420
-0.11789	-0.01114
-0.11789	-0.00969
-0.11789	-0.01259
-0.11794	-0.01162
-0.11794	-0.01049
-0.11794	-0.01001
-0.11794	-0.00985
-0.11794	-0.00775
-0.11794	-0.00920
-0.11794	-0.00808
-0.11794	-0.00808
-0.11794	-0.00695
-0.11794	-0.01146
-0.11794	-0.01017