"Interference and Diffraction Data File Mon, Mar 11, 2024 5:11 PM"	
Sensor Position (Meters)	Light Intensity (Volts)
0	-0.00808
0	-0.01081
0.00006	-0.0055
0.00006	-0.00872
0.00011	-0.00808
0.00011	-0.00953
0.00011	-0.01065
0.00017	-0.0142
0.00017	-0.0121
0.00022	-0.00985
0.00022	-0.01081
0.00022	-0.00969
0.00028	-0.00631
0.00028	-0.01049
0.00033	-0.00614
0.00033	-0.00985
0.00039	-0.00872
0.00039	-0.00824
0.00039	-0.00614
0.00044	-0.01098
0.00044	-0.00953
0.0005	-0.01001
0.0005	-0.00582
0.0005	-0.01049
0.00056	-0.01226
0.00056	-0.01371
0.00056	-0.0121
0.00061	-0.00808
0.00061	-0.00115
0.00067	-0.01065
0.00067	-0.00614
0.00067	-0.00792
0.00072	-0.01243
0.00072	-0.01098
0.00078	-0.01194
0.00078	-0.00598
0.00083	-0.00453
0.00083	-0.00856
0.00089	-0.01017
0.00089	-0.01178
0.00089	-0.00824
0.00094	-0.01162
0.00094	-0.01307
0.001	-0.00792
0.001	-0.00775
0.00106	-0.00663
0.00106	-0.00888
0.00106	-0.00808
0.00111	-0.01468
0.00111	-0.01194
0.00117	-0.01323
0.00117	-0.0084
0.00122	-0.00743
0.00122	-0.00872
0.00122	-0.00824
0.00128	-0.01387
0.00128	-0.0121
0.00133	-0.00953
0.00133	-0.00953
0.00133	-0.00953
0.00139	-0.0092
0.00139	-0.00486
0.00139	-0.00631
0.00144	-0.00534
0.00144	-0.01291
0.0015	-0.00888
0.0015	-0.01098
0.0015	-0.00743
0.00156	-0.01017
0.00156	-0.01339
0.00161	-0.00969
0.00161	-0.01452
0.00167	-0.01081
0.00167	-0.01081
0.00172	-0.01098
0.00172	-0.01065
0.00172	-0.00953
0.00178	-0.01194
0.00178	-0.01355
0.00183	-0.00904
0.00183	-0.00969
0.00189	-0.00598
0.00189	-0.01033
0.00189	-0.01146
0.00194	-0.01307
0.00194	-0.00953
0.002	-0.00904
0.002	-0.01098
0.00206	-0.01226
0.00206	-0.00341
0.00206	-0.0113
0.00211	-0.0084
0.00211	-0.00711
0.00211	-0.01243
0.00217	-0.00775
0.00217	-0.01081
0.00222	-0.00969
0.00222	-0.01001
0.00222	-0.0113
0.00228	-0.00872
0.00228	-0.0142
0.00228	-0.00872
0.00233	-0.01226
0.00233	-0.00856
0.00239	-0.00743
0.00239	-0.00872
0.00244	-0.01114
0.00244	-0.00985
0.0025	-0.00566
0.0025	-0.01017
0.0025	-0.00888
0.00256	-0.01178
0.00256	-0.0121
0.00261	-0.00969
0.00261	-0.01049
0.00267	-0.01371
0.00267	-0.01114
0.00267	-0.00631
0.00272	-0.01033
0.00272	-0.01081
0.00278	-0.01065
0.00278	-0.01162
0.00278	-0.01033
0.00283	-0.00937
0.00283	-0.00743
0.00289	-0.01081
0.00289	-0.00808
0.00289	-0.0084
0.00294	-0.00759
0.00294	-0.01065
0.003	-0.00792
0.003	-0.00985
0.003	-0.00856
0.00306	-0.0121
0.00306	-0.01114
0.00306	-0.00808
0.00311	-0.00695
0.00311	-0.0084
0.00317	-0.01162
0.00317	-0.01114
0.00317	-0.01146
0.00322	-0.01033
0.00322	-0.01178
0.00328	-0.00937
0.00328	-0.01033
0.00333	-0.0142
0.00333	-0.01226
0.00333	-0.0084
0.00339	-0.0113
0.00339	-0.01194
0.00344	-0.01355
0.00344	-0.01001
0.0035	-0.01468
0.0035	-0.01226
0.0035	-0.00824
0.00356	-0.00808
0.00356	-0.01194
0.00361	-0.00888
0.00361	-0.01323
0.00367	-0.01291
0.00367	-0.01339
0.00367	-0.01146
0.00372	-0.00872
0.00372	-0.01017
0.00378	-0.01033
0.00378	-0.00759
0.00378	-0.01017
0.00383	-0.01162
0.00383	-0.01162
0.00383	-0.01001
0.00389	-0.01452
0.00389	-0.01114
0.00394	-0.00743
0.00394	-0.00727
0.00394	-0.01178
0.004	-0.00759
0.004	-0.01146
0.00406	-0.00969
0.00406	-0.01033
0.00406	-0.01001
0.00411	-0.01371
0.00411	-0.00985
0.00417	-0.01017
0.00417	-0.01001
0.00422	-0.00985
0.00422	-0.00985
0.00422	-0.01049
0.00428	-0.01468
0.00428	-0.01146
0.00433	-0.01081
0.00433	-0.01226
0.00439	-0.01387
0.00439	-0.01581
0.00439	-0.01436
0.00444	-0.01049
0.00444	-0.01033
0.0045	-0.01178
0.0045	-0.01226
0.0045	-0.01001
0.00456	-0.00598
0.00456	-0.0084
0.00461	-0.00953
0.00461	-0.01146
0.00461	-0.01243
0.00467	-0.00888
0.00467	-0.00631
0.00467	-0.00904
0.00472	-0.01049
0.00472	-0.00937
0.00472	-0.01114
0.00478	-0.00808
0.00478	-0.00759
0.00483	-0.0084
0.00483	-0.01049
0.00483	-0.00888
0.00489	-0.01178
0.00489	-0.00937
0.00494	-0.01049
0.00494	-0.0113
0.005	-0.01436
0.005	-0.01226
0.005	-0.01001
0.00506	-0.0084
0.00506	-0.00775
0.00511	-0.01033
0.00511	-0.01291
0.00517	-0.00937
0.00517	-0.01081
0.00517	-0.00679
0.00522	-0.00695
0.00522	-0.00631
0.00528	-0.01065
0.00528	-0.01017
0.00528	-0.01049
0.00533	-0.01098
0.00533	-0.01146
0.00539	-0.01033
0.00539	-0.0121
0.00539	-0.01484
0.00544	-0.00953
0.00544	-0.00743
0.0055	-0.00953
0.0055	-0.01404
0.0055	-0.00872
0.00556	-0.00872
0.00556	-0.00631
0.00556	-0.01098
0.00561	-0.01049
0.00561	-0.00695
0.00567	-0.01049
0.00567	-0.01243
0.00572	-0.0121
0.00572	-0.00518
0.00572	-0.00969
0.00578	-0.01098
0.00578	-0.01001
0.00583	-0.0084
0.00583	-0.00647
0.00589	-0.00743
0.00589	-0.0092
0.00589	-0.00953
0.00594	-0.0092
0.00594	-0.01049
0.006	-0.00953
0.006	-0.01226
0.00606	-0.01194
0.00606	-0.0142
0.00606	-0.01162
0.00611	-0.01098
0.00611	-0.00888
0.00617	-0.00582
0.00617	-0.01065
0.00617	-0.0113
0.00622	-0.01565
0.00622	-0.01259
0.00628	-0.01355
0.00628	-0.00856
0.00628	-0.00792
0.00633	-0.0092
0.00633	-0.01001
0.00633	-0.0113
0.00639	-0.00566
0.00639	-0.00904
0.00639	-0.01339
0.00644	-0.00824
0.00644	-0.01065
0.0065	-0.01065
0.0065	-0.01307
0.00656	-0.00808
0.00656	-0.00824
0.00656	-0.01001
0.00661	-0.0121
0.00661	-0.01323
0.00667	-0.01226
0.00667	-0.01049
0.00672	-0.01291
0.00672	-0.00775
0.00672	-0.00695
0.00678	-0.01162
0.00678	-0.01275
0.00683	-0.01001
0.00683	-0.01146
0.00689	-0.00937
0.00689	-0.01194
0.00689	-0.00937
0.00694	-0.01098
0.00694	-0.01243
0.007	-0.00824
0.007	-0.00888
0.007	-0.01275
0.00706	-0.00953
0.00706	-0.01178
0.00711	-0.00775
0.00711	-0.01001
0.00711	-0.00824
0.00717	-0.01371
0.00717	-0.01081
0.00717	-0.0084
0.00722	-0.0113
0.00722	-0.00904
0.00728	-0.00985
0.00728	-0.00808
0.00728	-0.01178
0.00733	-0.00711
0.00733	-0.00872
0.00739	-0.01081
0.00739	-0.0113
0.00739	-0.01436
0.00744	-0.01178
0.00744	-0.00937
0.0075	-0.00856
0.0075	-0.00904
0.00756	-0.00743
0.00756	-0.01194
0.00761	-0.00808
0.00761	-0.00985
0.00761	-0.00969
0.00767	-0.01291
0.00767	-0.00888
0.00772	-0.01065
0.00772	-0.01001
0.00778	-0.01162
0.00778	-0.01065
0.00778	-0.00679
0.00783	-0.00631
0.00783	-0.00824
0.00789	-0.00969
0.00789	-0.00711
0.00789	-0.01001
0.00794	-0.01081
0.00794	-0.01049
0.008	-0.01098
0.008	-0.01065
0.008	-0.01259
0.00806	-0.01307
0.00806	-0.01532
0.00806	-0.01146
0.00811	-0.01355
0.00811	-0.00888
0.00817	-0.01049
0.00817	-0.00953
0.00822	-0.01065
0.00822	-0.00695
0.00822	-0.01291
0.00828	-0.00953
0.00828	-0.01275
0.00833	-0.01226
0.00833	-0.01049
0.00839	-0.01275
0.00839	-0.01194
0.00839	-0.01291
0.00844	-0.01339
0.00844	-0.01452
0.0085	-0.01404
0.0085	-0.00663
0.0085	-0.00969
0.00856	-0.00856
0.00856	-0.0092
0.00861	-0.00808
0.00861	-0.00711
0.00867	-0.00937
0.00867	-0.00743
0.00867	-0.00888
0.00872	-0.00937
0.00872	-0.00856
0.00878	-0.0113
0.00878	-0.01291
0.00878	-0.01146
0.00883	-0.01162
0.00883	-0.00711
0.00889	-0.00759
0.00889	-0.01259
0.00889	-0.01049
0.00894	-0.00792
0.00894	-0.00743
0.009	-0.00969
0.009	-0.00985
0.009	-0.00888
0.00906	-0.00969
0.00906	-0.01017
0.00911	-0.00808
0.00911	-0.00985
0.00917	-0.01371
0.00917	-0.01049
0.00922	-0.01049
0.00922	-0.01098
0.00922	-0.00759
0.00928	-0.00888
0.00928	-0.0113
0.00933	-0.0092
0.00933	-0.01049
0.00939	-0.01017
0.00939	-0.00937
0.00939	-0.00663
0.00944	-0.0121
0.00944	-0.01114
0.0095	-0.01146
0.0095	-0.00969
0.0095	-0.01275
0.00956	-0.00904
0.00956	-0.00953
0.00961	-0.01243
0.00961	-0.01178
0.00961	-0.00856
0.00967	-0.01065
0.00967	-0.01033
0.00972	-0.00792
0.00972	-0.00808
0.00972	-0.00566
0.00978	-0.01098
0.00978	-0.01065
0.00983	-0.01226
0.00983	-0.01549
0.00989	-0.00985
0.00989	-0.01243
0.00989	-0.0092
0.00994	-0.01049
0.00994	-0.00888
0.01	-0.01259
0.01	-0.01114
0.01006	-0.0121
0.01006	-0.00775
0.01011	-0.01178
0.01011	-0.01339
0.01011	-0.01098
0.01017	-0.01081
0.01017	-0.01371
0.01022	-0.00824
0.01022	-0.00985
0.01028	-0.00969
0.01028	-0.0121
0.01028	-0.01033
0.01033	-0.01001
0.01033	-0.01307
0.01039	-0.00904
0.01039	-0.01098
0.01044	-0.01081
0.01044	-0.00856
0.01044	-0.0113
0.0105	-0.00937
0.0105	-0.00969
0.01056	-0.00969
0.01056	-0.01243
0.01056	-0.01017
0.01061	-0.01049
0.01061	-0.01049
0.01061	-0.01114
0.01067	-0.00937
0.01067	-0.01387
0.01072	-0.01259
0.01072	-0.01065
0.01078	-0.0084
0.01078	-0.00727
0.01083	-0.01146
0.01083	-0.0092
0.01089	-0.00824
0.01089	-0.01081
0.01089	-0.01065
0.01094	-0.00711
0.01094	-0.01291
0.011	-0.01178
0.011	-0.01114
0.01106	-0.01162
0.01106	-0.01243
0.01106	-0.01323
0.01111	-0.0092
0.01111	-0.0055
0.01117	-0.00647
0.01117	-0.00614
0.01122	-0.01081
0.01122	-0.01049
0.01122	-0.01017
0.01128	-0.01307
0.01128	-0.01065
0.01133	-0.01146
0.01133	-0.01081
0.01133	-0.0113
0.01139	-0.01033
0.01139	-0.01001
0.01144	-0.01307
0.01144	-0.00985
0.01144	-0.00888
0.0115	-0.0055
0.0115	-0.00711
0.01156	-0.00953
0.01156	-0.01098
0.01156	-0.01098
0.01161	-0.00985
0.01161	-0.01049
0.01167	-0.0084
0.01167	-0.01178
0.01172	-0.00969
0.01172	-0.01355
0.01178	-0.00518
0.01178	-0.01033
0.01178	-0.01307
0.01183	-0.01259
0.01183	-0.01371
0.01189	-0.01452
0.01189	-0.00695
0.01194	-0.0084
0.01194	-0.01065
0.012	-0.01178
0.012	-0.01049
0.012	-0.01081
0.01206	-0.01194
0.01206	-0.01178
0.01211	-0.0084
0.01211	-0.00856
0.01211	-0.00518
0.01217	-0.00953
0.01217	-0.0121
0.01222	-0.01081
0.01222	-0.00872
0.01222	-0.00953
0.01228	-0.00808
0.01228	-0.0084
0.01228	-0.01339
0.01233	-0.01049
0.01233	-0.00985
0.01239	-0.01114
0.01239	-0.01355
0.01239	-0.00937
0.01244	-0.00872
0.01244	-0.01065
0.0125	-0.01226
0.0125	-0.01259
0.01256	-0.00534
0.01256	-0.0121
0.01256	-0.01291
0.01261	-0.00598
0.01261	-0.0113
0.01267	-0.01081
0.01267	-0.00953
0.01272	-0.00937
0.01272	-0.00856
0.01272	-0.01226
0.01278	-0.00953
0.01278	-0.00904
0.01283	-0.00808
0.01283	-0.00743
0.01283	-0.00534
0.01289	-0.00663
0.01289	-0.00598
0.01294	-0.00888
0.01294	-0.00872
0.013	-0.00856
0.013	-0.00985
0.013	-0.01017
0.01306	-0.00775
0.01306	-0.00872
0.01306	-0.01114
0.01311	-0.00759
0.01311	-0.01049
0.01317	-0.00872
0.01317	-0.00727
0.01317	-0.00888
0.01322	-0.01162
0.01322	-0.01017
0.01328	-0.01081
0.01328	-0.00808
0.01328	-0.00856
0.01333	-0.00598
0.01333	-0.00985
0.01339	-0.00759
0.01339	-0.00872
0.01344	-0.00985
0.01344	-0.00985
0.0135	-0.01065
0.0135	-0.01355
0.0135	-0.00937
0.01356	-0.00808
0.01356	-0.01307
0.01361	-0.01146
0.01361	-0.00631
0.01361	-0.0084
0.01367	-0.00534
0.01367	-0.00502
0.01372	-0.01114
0.01372	-0.00904
0.01378	-0.01226
0.01378	-0.00711
0.01378	-0.00614
0.01383	-0.00985
0.01383	-0.00759
0.01383	-0.00969
0.01389	-0.01001
0.01389	-0.01098
0.01394	-0.01114
0.01394	-0.0121
0.01394	-0.00502
0.014	-0.01001
0.014	-0.00985
0.014	-0.00824
0.01406	-0.00486
0.01406	-0.01049
0.01411	-0.00437
0.01411	-0.00888
0.01417	-0.00711
0.01417	-0.00969
0.01422	-0.00953
0.01422	-0.01033
0.01428	-0.00566
0.01428	-0.00904
0.01428	-0.01033
0.01433	-0.00663
0.01433	-0.00631
0.01439	-0.00518
0.01439	-0.00759
0.01439	-0.01178
0.01444	-0.01226
0.01444	-0.01081
0.0145	-0.01001
0.0145	-0.00743
0.01456	-0.01194
0.01456	-0.00759
0.01456	-0.00695
0.01461	-0.00904
0.01461	-0.00856
0.01467	-0.00614
0.01467	-0.00534
0.01467	-0.00888
0.01472	-0.00647
0.01472	-0.00792
0.01472	-0.0084
0.01478	-0.00743
0.01478	-0.00872
0.01478	-0.01001
0.01483	-0.00759
0.01483	-0.00373
0.01483	-0.00631
0.01489	-0.01114
0.01489	-0.0084
0.01494	-0.00985
0.01494	-0.01243
0.015	-0.00663
0.015	-0.00405
0.01506	-0.01033
0.01506	-0.00679
0.01506	-0.00985
0.01511	-0.0084
0.01511	-0.01146
0.01517	-0.0084
0.01517	-0.00663
0.01522	-0.00631
0.01522	-0.00518
0.01522	-0.00598
0.01528	-0.00888
0.01528	-0.00405
0.01533	-0.00937
0.01533	-0.00985
0.01533	-0.0092
0.01539	-0.00759
0.01539	-0.01307
0.01544	-0.00775
0.01544	-0.00614
0.01544	-0.00373
0.0155	-0.01178
0.0155	-0.0084
0.01556	-0.00856
0.01556	-0.00647
0.01556	-0.00534
0.01561	-0.00534
0.01561	-0.00808
0.01561	-0.00872
0.01567	-0.00904
0.01567	-0.01371
0.01572	-0.0047
0.01572	-0.00518
0.01572	-0.00711
0.01578	-0.0084
0.01578	-0.01146
0.01583	-0.01275
0.01583	-0.00824
0.01589	-0.00792
0.01589	-0.00808
0.01594	-0.00808
0.01594	-0.00953
0.01594	-0.01065
0.016	-0.00647
0.016	-0.01001
0.01606	-0.00711
0.01606	-0.01178
0.01611	-0.01114
0.01611	-0.00727
0.01611	-0.0092
0.01617	-0.00614
0.01617	-0.00937
0.01622	-0.01098
0.01622	-0.01081
0.01622	-0.00856
0.01628	-0.01226
0.01628	-0.0084
0.01633	-0.0092
0.01633	-0.00792
0.01633	-0.01178
0.01639	-0.00937
0.01639	-0.00969
0.01639	-0.01049
0.01644	-0.0121
0.01644	-0.01194
0.01644	-0.01162
0.0165	-0.01291
0.0165	-0.00743
0.01656	-0.00872
0.01656	-0.00888
0.01661	-0.00904
0.01661	-0.00856
0.01667	-0.00775
0.01667	-0.01146
0.01667	-0.01049
0.01672	-0.01033
0.01672	-0.01049
0.01678	-0.0055
0.01678	-0.00711
0.01683	-0.01001
0.01683	-0.0084
0.01683	-0.0084
0.01689	-0.00969
0.01689	-0.00775
0.01694	-0.00856
0.01694	-0.00663
0.017	-0.00856
0.017	-0.00792
0.017	-0.01565
0.01706	-0.00647
0.01706	-0.00792
0.01706	-0.00631
0.01711	-0.01001
0.01711	-0.00856
0.01717	-0.00759
0.01717	-0.00856
0.01717	-0.01178
0.01722	-0.00695
0.01722	-0.00775
0.01728	-0.01452
0.01728	-0.01114
0.01728	-0.00775
0.01733	-0.00743
0.01733	-0.00792
0.01739	-0.01162
0.01739	-0.01371
0.01739	-0.00244
0.01744	-0.00518
0.01744	-0.00824
0.0175	-0.00824
0.0175	-0.01049
0.01756	-0.01065
0.01756	-0.00888
0.01756	-0.00969
0.01761	-0.01323
0.01761	-0.00856
0.01767	-0.01162
0.01767	-0.00953
0.01772	-0.00792
0.01772	-0.00566
0.01772	-0.00679
0.01778	-0.00953
0.01778	-0.0084
0.01783	-0.00953
0.01783	-0.01098
0.01789	-0.01178
0.01789	-0.01049
0.01789	-0.01017
0.01794	-0.01017
0.01794	-0.01146
0.01794	-0.00808
0.018	-0.00759
0.018	-0.01017
0.01806	-0.01081
0.01806	-0.01049
0.01806	-0.00969
0.01811	-0.01114
0.01811	-0.01017
0.01811	-0.00486
0.01817	-0.00405
0.01817	-0.00679
0.01822	-0.01049
0.01822	-0.01275
0.01822	-0.01194
0.01828	-0.01114
0.01828	-0.00985
0.01833	-0.00598
0.01833	-0.00937
0.01839	-0.01081
0.01839	-0.00775
0.01839	-0.00953
0.01844	-0.00872
0.01844	-0.01098
0.0185	-0.0092
0.0185	-0.00824
0.01856	-0.00808
0.01856	-0.01017
0.01856	-0.00711
0.01861	-0.01065
0.01861	-0.01323
0.01867	-0.01049
0.01867	-0.01275
0.01872	-0.00824
0.01872	-0.00985
0.01872	-0.01114
0.01878	-0.01243
0.01878	-0.01098
0.01883	-0.00953
0.01883	-0.01226
0.01883	-0.01404
0.01889	-0.01291
0.01889	-0.01178
0.01889	-0.00663
0.01894	-0.00743
0.01894	-0.00647
0.019	-0.01049
0.019	-0.0084
0.01906	-0.00647
0.01906	-0.00695
0.01906	-0.01049
0.01911	-0.00888
0.01911	-0.01339
0.01917	-0.00566
0.01917	-0.00598
0.01922	-0.0092
0.01922	-0.01049
0.01928	-0.0121
0.01928	-0.01565
0.01928	-0.00743
0.01933	-0.00985
0.01933	-0.00969
0.01939	-0.0055
0.01939	-0.01081
0.01944	-0.01098
0.01944	-0.00985
0.01944	-0.01323
0.0195	-0.0084
0.0195	-0.00904
0.01956	-0.01001
0.01956	-0.01098
0.01956	-0.00937
0.01961	-0.00985
0.01961	-0.01226
0.01967	-0.01146
0.01967	-0.00743
0.01967	-0.01017
0.01972	-0.01049
0.01972	-0.00969
0.01978	-0.00937
0.01978	-0.00824
0.01978	-0.00614
0.01983	-0.00888
0.01983	-0.01178
0.01989	-0.00985
0.01989	-0.00775
0.01994	-0.0084
0.01994	-0.01259
0.02	-0.01178
0.02	-0.0084
0.02	-0.00695
0.02006	-0.00904
0.02006	-0.01114
0.02011	-0.01452
0.02011	-0.01339
0.02017	-0.00631
0.02017	-0.01001
0.02017	-0.0055
0.02022	-0.00856
0.02022	-0.00695
0.02028	-0.00953
0.02028	-0.00792
0.02033	-0.00711
0.02033	-0.00824
0.02033	-0.00582
0.02039	-0.00792
0.02039	-0.01065
0.02044	-0.00872
0.02044	-0.0047
0.0205	-0.00937
0.0205	-0.01017
0.0205	-0.00727
0.02056	-0.01049
0.02056	-0.00614
0.02056	-0.00647
0.02061	-0.0092
0.02061	-0.0084
0.02067	-0.0092
0.02067	-0.00872
0.02067	-0.00792
0.02072	-0.00695
0.02072	-0.01017
0.02078	-0.00775
0.02078	-0.01178
0.02083	-0.01065
0.02083	-0.01001
0.02089	-0.00888
0.02089	-0.00872
0.02094	-0.00695
0.02094	-0.00679
0.02094	-0.0084
0.021	-0.00711
0.021	-0.01098
0.02106	-0.01178
0.02106	-0.00711
0.02111	-0.00502
0.02111	-0.00792
0.02117	-0.0084
0.02117	-0.01243
0.02117	-0.01323
0.02122	-0.01114
0.02122	-0.00695
0.02128	-0.01017
0.02128	-0.01049
0.02128	-0.00808
0.02133	-0.00824
0.02133	-0.01259
0.02139	-0.01065
0.02139	-0.01098
0.02139	-0.01065
0.02144	-0.01098
0.02144	-0.00824
0.0215	-0.01081
0.0215	-0.00872
0.0215	-0.01243
0.02156	-0.00824
0.02156	-0.0113
0.02161	-0.01162
0.02161	-0.01291
0.02167	-0.00969
0.02167	-0.00647
0.02172	-0.00808
0.02172	-0.01387
0.02172	-0.01049
0.02178	-0.00792
0.02178	-0.00421
0.02183	-0.01114
0.02183	-0.01017
0.02189	-0.00679
0.02189	-0.01146
0.02194	-0.01178
0.02194	-0.00888
0.02194	-0.00985
0.022	-0.00679
0.022	-0.01339
0.02206	-0.00792
0.02206	-0.00904
0.02211	-0.01033
0.02211	-0.01049
0.02211	-0.01049
0.02217	-0.00631
0.02217	-0.01098
0.02217	-0.01001
0.02222	-0.01098
0.02222	-0.00953
0.02228	-0.01065
0.02228	-0.00872
0.02228	-0.0092
0.02233	-0.00775
0.02233	-0.01081
0.02239	-0.01243
0.02239	-0.00631
0.02239	-0.00969
0.02244	-0.01098
0.02244	-0.00743
0.0225	-0.00937
0.0225	-0.01049
0.02256	-0.01355
0.02256	-0.01178
0.02256	-0.01162
0.02261	-0.0084
0.02261	-0.00695
0.02267	-0.01146
0.02267	-0.00953
0.02272	-0.01081
0.02272	-0.00792
0.02272	-0.0113
0.02278	-0.01307
0.02278	-0.00953
0.02283	-0.00969
0.02283	-0.01226
0.02283	-0.00679
0.02289	-0.00969
0.02289	-0.01146
0.02294	-0.01226
0.02294	-0.00953
0.02294	-0.00743
0.023	-0.00759
0.023	-0.00582
0.02306	-0.00631
0.02306	-0.00695
0.02306	-0.01178
0.02311	-0.01452
0.02311	-0.00904
0.02317	-0.00598
0.02317	-0.0092
0.02317	-0.0092
0.02322	-0.01307
0.02322	-0.01452
0.02328	-0.00969
0.02328	-0.00453
0.02328	-0.01001
0.02333	-0.01049
0.02333	-0.01065
0.02339	-0.00808
0.02339	-0.00695
0.02344	-0.01146
0.02344	-0.00695
0.02344	-0.00775
0.0235	-0.00904
0.0235	-0.01307
0.02356	-0.01259
0.02356	-0.00824
0.02361	-0.01033
0.02361	-0.00824
0.02361	-0.01194
0.02367	-0.01081
0.02367	-0.00937
0.02372	-0.00695
0.02372	-0.00937
0.02372	-0.00969
0.02378	-0.00711
0.02378	-0.00888
0.02383	-0.01323
0.02383	-0.00937
0.02383	-0.0092
0.02389	-0.00775
0.02389	-0.01114
0.02394	-0.00985
0.02394	-0.01098
0.02394	-0.01114
0.024	-0.01323
0.024	-0.01033
0.024	-0.0113
0.02406	-0.01081
0.02406	-0.01065
0.02411	-0.00695
0.02411	-0.0092
0.02417	-0.00872
0.02417	-0.00759
0.02417	-0.00582
0.02422	-0.00904
0.02422	-0.01291
0.02428	-0.01339
0.02428	-0.01146
0.02433	-0.01194
0.02433	-0.01371
0.02433	-0.00856
0.02439	-0.0113
0.02439	-0.01081
0.02444	-0.00647
0.02444	-0.00856
0.02444	-0.00727
0.0245	-0.00985
0.0245	-0.00808
0.02456	-0.00775
0.02456	-0.01275
0.02461	-0.01065
0.02461	-0.01065
0.02461	-0.01339
0.02467	-0.01307
0.02467	-0.00792
0.02467	-0.00808
0.02472	-0.00743
0.02472	-0.00824
0.02478	-0.01194
0.02478	-0.01291
0.02478	-0.00969
0.02483	-0.00888
0.02483	-0.01001
0.02483	-0.0121
0.02489	-0.01323
0.02489	-0.01098
0.02494	-0.01307
0.02494	-0.01081
0.02494	-0.01178
0.025	-0.00759
0.025	-0.00727
0.02506	-0.00904
0.02506	-0.01226
0.02511	-0.01081
0.02511	-0.01065
0.02511	-0.00888
0.02517	-0.01001
0.02517	-0.0092
0.02522	-0.01243
0.02522	-0.01178
0.02528	-0.0113
0.02528	-0.00937
0.02528	-0.00824
0.02533	-0.00743
0.02533	-0.0084
0.02539	-0.00808
0.02539	-0.01001
0.02539	-0.00937
0.02544	-0.01275
0.02544	-0.01033
0.0255	-0.00953
0.0255	-0.00937
0.0255	-0.00631
0.02556	-0.01194
0.02556	-0.01017
0.02556	-0.01226
0.02561	-0.00808
0.02561	-0.01049
0.02567	-0.01114
0.02567	-0.00808
0.02567	-0.01371
0.02572	-0.0142
0.02572	-0.00405
0.02578	-0.0084
0.02578	-0.01001
0.02578	-0.00985
0.02583	-0.01098
0.02583	-0.01065
0.02589	-0.01081
0.02589	-0.01114
0.02594	-0.00679
0.02594	-0.00953
0.02594	-0.0084
0.026	-0.01162
0.026	-0.00953
0.02606	-0.0084
0.02606	-0.01033
0.02611	-0.00969
0.02611	-0.01049
0.02611	-0.0113
0.02617	-0.01049
0.02617	-0.01146
0.02622	-0.01049
0.02622	-0.00969
0.02622	-0.00904
0.02628	-0.00598
0.02628	-0.00985
0.02633	-0.00759
0.02633	-0.00808
0.02633	-0.00856
0.02639	-0.00872
0.02639	-0.01081
0.02639	-0.01291
0.02644	-0.01355
0.02644	-0.01162
0.0265	-0.01259
0.0265	-0.00711
0.0265	-0.00792
0.02656	-0.01114
0.02656	-0.00759
0.02661	-0.01484
0.02661	-0.01098
0.02667	-0.01291
0.02667	-0.01323
0.02667	-0.00711
0.02672	-0.00824
0.02672	-0.00775
0.02678	-0.00775
0.02678	-0.00792
0.02683	-0.00824
0.02683	-0.01259
0.02683	-0.00904
0.02689	-0.00969
0.02689	-0.01065
0.02694	-0.01162
0.02694	-0.00759
0.02694	-0.00985
0.027	-0.01178
0.027	-0.01275
0.02706	-0.01049
0.02706	-0.00711
0.02711	-0.01065
0.02711	-0.00631
0.02711	-0.01065
0.02717	-0.01194
0.02717	-0.01162
0.02717	-0.00727
0.02722	-0.00856
0.02722	-0.00872
0.02728	-0.01178
0.02728	-0.01178
0.02728	-0.01468
0.02733	-0.01436
0.02733	-0.01001
0.02733	-0.0084
0.02739	-0.01017
0.02739	-0.0113
0.02744	-0.01081
0.02744	-0.00904
0.0275	-0.01291
0.0275	-0.01452
0.0275	-0.01017
0.02756	-0.01049
0.02756	-0.00824
0.02761	-0.0113
0.02761	-0.00937
0.02767	-0.00888
0.02767	-0.00824
0.02767	-0.01001
0.02772	-0.01162
0.02772	-0.01114
0.02778	-0.01162
0.02778	-0.01259
0.02783	-0.01275
0.02783	-0.00985
0.02783	-0.01001
0.02789	-0.01162
0.02789	-0.00856
0.02794	-0.00872
0.02794	-0.01114
0.02794	-0.00985
0.028	-0.00985
0.028	-0.01033
0.02806	-0.0092
0.02806	-0.00856
0.02806	-0.00824
0.02811	-0.00824
0.02811	-0.00888
0.02811	-0.01098
0.02817	-0.01339
0.02817	-0.0092
0.02817	-0.00904
0.02822	-0.0084
0.02822	-0.00679
0.02828	-0.01307
0.02828	-0.0142
0.02833	-0.01291
0.02833	-0.01291
0.02839	-0.00775
0.02839	-0.00792
0.02839	-0.00888
0.02844	-0.01355
0.02844	-0.00985
0.0285	-0.00969
0.0285	-0.00872
0.02856	-0.00969
0.02856	-0.00953
0.02856	-0.00953
0.02861	-0.01307
0.02861	-0.00631
0.02867	-0.00969
0.02867	-0.00937
0.02867	-0.00566
0.02872	-0.00582
0.02872	-0.00904
0.02878	-0.01259
0.02878	-0.0092
0.02878	-0.01243
0.02883	-0.00888
0.02883	-0.00969
0.02889	-0.00792
0.02889	-0.00775
0.02889	-0.00888
0.02894	-0.00453
0.02894	-0.01001
0.029	-0.00647
0.029	-0.00985
0.029	-0.01049
0.02906	-0.01001
0.02906	-0.01307
0.02911	-0.00824
0.02911	-0.00937
0.02917	-0.01017
0.02917	-0.01226
0.02922	-0.0113
0.02922	-0.00308
0.02922	-0.01033
0.02928	-0.00856
0.02928	-0.00985
0.02933	-0.00969
0.02933	-0.00888
0.02939	-0.0092
0.02939	-0.00937
0.02939	-0.00888
0.02944	-0.01146
0.02944	-0.01162
0.0295	-0.01081
0.0295	-0.0092
0.0295	-0.00695
0.02956	-0.01001
0.02956	-0.01194
0.02961	-0.01017
0.02961	-0.01291
0.02961	-0.01339
0.02967	-0.00888
0.02967	-0.00083
0.02972	-0.00711
0.02972	-0.01178
0.02972	-0.01098
0.02978	-0.01162
0.02978	-0.00856
0.02983	-0.0092
0.02983	-0.00792
0.02983	-0.00695
0.02989	-0.00647
0.02989	-0.01162
0.02994	-0.01001
0.02994	-0.00985
0.03	-0.00792
0.03	-0.0084
0.03006	-0.01049
0.03006	-0.0113
0.03006	-0.00808
0.03011	-0.01081
0.03011	-0.01259
0.03017	-0.01017
0.03017	-0.01001
0.03017	-0.01243
0.03022	-0.01049
0.03022	-0.0084
0.03028	-0.00792
0.03028	-0.00534
0.03033	-0.01146
0.03033	-0.00953
0.03033	-0.01307
0.03039	-0.01162
0.03039	-0.01065
0.03044	-0.01162
0.03044	-0.01259
0.0305	-0.01243
0.0305	-0.00985
0.0305	-0.00872
0.03056	-0.00904
0.03056	-0.01162
0.03056	-0.01114
0.03061	-0.00985
0.03061	-0.00808
0.03067	-0.00937
0.03067	-0.00904
0.03067	-0.00743
0.03072	-0.00824
0.03072	-0.00824
0.03078	-0.01291
0.03078	-0.01291
0.03083	-0.00953
0.03083	-0.00775
0.03089	-0.01243
0.03089	-0.01194
0.03089	-0.00598
0.03094	-0.00872
0.03094	-0.0084
0.031	-0.01226
0.031	-0.00953
0.03106	-0.0084
0.03106	-0.01033
0.03106	-0.00792
0.03111	-0.00743
0.03111	-0.01114
0.03117	-0.00808
0.03117	-0.00985
0.03117	-0.01178
0.03122	-0.01098
0.03122	-0.0092
0.03128	-0.00759
0.03128	-0.00904
0.03133	-0.01114
0.03133	-0.00888
0.03133	-0.01001
0.03139	-0.01146
0.03139	-0.01033
0.03144	-0.00969
0.03144	-0.01081
0.03144	-0.00647
0.0315	-0.01001
0.0315	-0.0092
0.0315	-0.01098
0.03156	-0.01033
0.03156	-0.01516
0.03161	-0.00969
0.03161	-0.00808
0.03167	-0.01371
0.03167	-0.00888
0.03172	-0.00679
0.03172	-0.01146
0.03178	-0.00663
0.03178	-0.00727
0.03178	-0.00743
0.03183	-0.00775
0.03183	-0.01049
0.03189	-0.00743
0.03189	-0.00711
0.03194	-0.00727
0.03194	-0.0113
0.03194	-0.0113
0.032	-0.00969
0.032	-0.01017
0.03206	-0.01081
0.03206	-0.0113
0.03206	-0.01436
0.03211	-0.00743
0.03211	-0.00775
0.03217	-0.01114
0.03217	-0.00904
0.03222	-0.00631
0.03222	-0.00518
0.03222	-0.01033
0.03228	-0.00953
0.03228	-0.0047
0.03228	-0.01387
0.03233	-0.00904
0.03233	-0.00824
0.03239	-0.00953
0.03239	-0.01081
0.03244	-0.00228
0.03244	-0.0092
0.03244	-0.00824
0.0325	-0.00969
0.0325	-0.01065
0.03256	-0.00808
0.03256	-0.01033
0.03256	-0.01339
0.03261	-0.00872
0.03261	-0.00582
0.03267	-0.01339
0.03267	-0.0113
0.03272	-0.00695
0.03272	-0.00663
0.03272	-0.00888
0.03278	-0.01065
0.03278	-0.01081
0.03283	-0.01243
0.03283	-0.00775
0.03283	-0.00679
0.03289	-0.00647
0.03289	-0.00711
0.03294	-0.01081
0.03294	-0.00856
0.033	-0.00743
0.033	-0.00792
0.033	-0.00453
0.03306	-0.00598
0.03306	-0.01017
0.03306	-0.01033
0.03311	-0.01339
0.03311	-0.00969
0.03317	-0.00969
0.03317	-0.00695
0.03317	-0.00647
0.03322	-0.00534
0.03322	-0.0084
0.03328	-0.00808
0.03328	-0.00872
0.03328	-0.01049
0.03333	-0.00792
0.03333	-0.00566
0.03339	-0.00888
0.03339	-0.00824
0.03344	-0.00937
0.03344	-0.00937
0.03344	-0.00904
0.0335	-0.00679
0.0335	-0.00904
0.03356	-0.00695
0.03356	-0.00759
0.03361	-0.00566
0.03361	-0.00775
0.03361	-0.00695
0.03367	-0.00904
0.03367	-0.00775
0.03372	-0.00631
0.03372	-0.01114
0.03372	-0.00679
0.03378	-0.0113
0.03378	-0.00598
0.03383	-0.00695
0.03383	-0.00679
0.03383	-0.00373
0.03389	-0.00904
0.03389	-0.00663
0.03394	-0.00759
0.03394	-0.00518
0.03394	-0.00679
0.034	-0.00808
0.034	-0.00663
0.034	-0.01081
0.03406	-0.00888
0.03406	-0.00856
0.03411	-0.00614
0.03411	-0.01017
0.03417	-0.00904
0.03417	-0.00357
0.03417	-0.00405
0.03422	-0.00631
0.03422	-0.0084
0.03428	-0.00808
0.03428	-0.00614
0.03433	-0.00856
0.03433	-0.00775
0.03433	-0.00856
0.03439	-0.00808
0.03439	-0.0055
0.03444	-0.00856
0.03444	-0.00631
0.0345	-0.00711
0.0345	-0.0047
0.0345	-0.00808
0.03456	-0.00663
0.03456	-0.00759
0.03461	-0.00518
0.03461	-0.01033
0.03461	-0.00824
0.03467	-0.00969
0.03467	-0.0113
0.03472	-0.00792
0.03472	-0.01098
0.03472	-0.00502
0.03478	-0.00598
0.03478	-0.00695
0.03478	-0.01065
0.03483	-0.00969
0.03483	-0.01259
0.03489	-0.01065
0.03489	-0.01114
0.03489	-0.01065
0.03494	-0.01001
0.03494	-0.00534
0.035	-0.00695
0.035	-0.01017
0.03506	-0.00969
0.03506	-0.01001
0.03506	-0.0113
0.03511	-0.01098
0.03511	-0.00792
0.03517	-0.00969
0.03517	-0.00824
0.03522	-0.00759
0.03522	-0.01146
0.03522	-0.00711
0.03528	-0.01001
0.03528	-0.0113
0.03533	-0.00808
0.03533	-0.00775
0.03533	-0.00888
0.03539	-0.00614
0.03539	-0.01226
0.03544	-0.01404
0.03544	-0.00953
0.03544	-0.01355
0.0355	-0.00937
0.0355	-0.00792
0.0355	-0.0084
0.03556	-0.00953
0.03556	-0.0113
0.03561	-0.00679
0.03561	-0.00953
0.03561	-0.00953
0.03567	-0.00904
0.03567	-0.00937
0.03572	-0.01243
0.03572	-0.01178
0.03572	-0.01081
0.03578	-0.00711
0.03578	-0.00953
0.03583	-0.01001
0.03583	-0.00808
0.03589	-0.00985
0.03589	-0.01114
0.03589	-0.01098
0.03594	-0.0121
0.03594	-0.00792
0.036	-0.00824
0.036	-0.01081
0.03606	-0.01243
0.03606	-0.00985
0.03606	-0.01194
0.03611	-0.00792
0.03611	-0.00647
0.03617	-0.00856
0.03617	-0.00775
0.03617	-0.00824
0.03622	-0.00759
0.03622	-0.01081
0.03628	-0.00969
0.03628	-0.00808
0.03628	-0.00904
0.03633	-0.00824
0.03633	-0.00872
0.03633	-0.01178
0.03639	-0.01065
0.03639	-0.01468
0.03639	-0.01355
0.03644	-0.01178
0.03644	-0.00985
0.0365	-0.01098
0.0365	-0.00808
0.03656	-0.00775
0.03656	-0.01098
0.03656	-0.00969
0.03661	-0.00727
0.03661	-0.0092
0.03667	-0.0121
0.03667	-0.00566
0.03672	-0.00953
0.03672	-0.00727
0.03672	-0.0084
0.03678	-0.00969
0.03678	-0.01001
0.03683	-0.00953
0.03683	-0.00824
0.03683	-0.00953
0.03689	-0.00711
0.03689	-0.00711
0.03694	-0.00518
0.03694	-0.01001
0.037	-0.01081
0.037	-0.0113
0.037	-0.01162
0.03706	-0.00775
0.03706	-0.00808
0.03706	-0.00953
0.03711	-0.00695
0.03711	-0.00856
0.03717	-0.00856
0.03717	-0.00904
0.03717	-0.00888
0.03722	-0.00937
0.03722	-0.01275
0.03728	-0.0142
0.03728	-0.01081
0.03728	-0.0113
0.03733	-0.01114
0.03733	-0.00663
0.03739	-0.00872
0.03739	-0.00953
0.03739	-0.01081
0.03744	-0.01243
0.03744	-0.01146
0.0375	-0.01243
0.0375	-0.01339
0.03756	-0.00985
0.03756	-0.00888
0.03756	-0.00969
0.03761	-0.01081
0.03761	-0.00937
0.03767	-0.01098
0.03767	-0.01146
0.03767	-0.01339
0.03772	-0.01243
0.03772	-0.01178
0.03778	-0.00824
0.03778	-0.00775
0.03783	-0.0113
0.03783	-0.00969
0.03783	-0.00808
0.03789	-0.00775
0.03789	-0.0084
0.03794	-0.00937
0.03794	-0.00904
0.03794	-0.0092
0.038	-0.00614
0.038	-0.01098
0.03806	-0.01275
0.03806	-0.01226
0.03806	-0.01049
0.03811	-0.00872
0.03811	-0.00953
0.03811	-0.00502
0.03817	-0.00856
0.03817	-0.00985
0.03822	-0.0047
0.03822	-0.0092
0.03828	-0.01033
0.03828	-0.00534
0.03828	-0.00856
0.03833	-0.00969
0.03833	-0.00792
0.03839	-0.00711
0.03839	-0.00341
0.03844	-0.00437
0.03844	-0.00824
0.03844	-0.00518
0.0385	-0.00872
0.0385	-0.00937
0.03856	-0.00775
0.03856	-0.00582
0.03861	-0.00759
0.03861	-0.00695
0.03861	-0.00453
0.03867	-0.00743
0.03867	-0.00679
0.03872	-0.00614
0.03872	-0.00598
0.03872	-0.00985
0.03878	-0.00421
0.03878	-0.00373
0.03883	-0.00486
0.03883	-0.00727
0.03883	-0.00325
0.03889	-0.00212
0.03889	-0.00631
0.03894	-0.00663
0.03894	-0.00486
0.03894	-0.00437
0.039	-0.00598
0.039	-0.0055
0.03906	-0.00244
0.03906	-0.00614
0.03911	-0.01065
0.03911	-0.00775
0.03917	-0.00631
0.03917	-0.01033
0.03917	-0.0084
0.03922	-0.00904
0.03922	-0.00534
0.03928	-0.00647
0.03928	-0.00663
0.03928	-0.00631
0.03933	-0.01065
0.03933	-0.00679
0.03939	-0.01114
0.03939	-0.00566
0.03944	-0.00792
0.03944	-0.00759
0.0395	-0.0092
0.0395	-0.00985
0.0395	-0.00856
0.03956	-0.00695
0.03956	-0.00904
0.03961	-0.01114
0.03961	-0.01065
0.03961	-0.00308
0.03967	-0.00421
0.03967	-0.00518
0.03972	-0.0055
0.03972	-0.00647
0.03972	-0.00824
0.03978	-0.00985
0.03978	-0.01033
0.03983	-0.00953
0.03983	-0.00341
0.03983	-0.00437
0.03989	-0.00711
0.03989	-0.00727
0.03994	-0.01065
0.03994	-0.01114
0.04	-0.00405
0.04	-0.0047
0.04	-0.00228
0.04006	-0.00437
0.04006	-0.00534
0.04011	-0.00647
0.04011	-0.00534
0.04017	-0.00453
0.04017	-0.00518
0.04017	-0.00357
0.04022	-0.00486
0.04022	-0.00582
0.04028	-0.00679
0.04028	-0.00518
0.04033	-0.00453
0.04033	-0.0047
0.04033	-0.00292
0.04039	-0.00888
0.04039	-0.01049
0.04044	-0.01081
0.04044	-0.00373
0.04044	-0.00888
0.0405	-0.00582
0.0405	-0.00453
0.04056	-0.00228
0.04056	-0.00502
0.04056	-0.00775
0.04061	-0.00502
0.04061	-0.00953
0.04067	-0.00614
0.04067	-0.00647
0.04067	-0.00502
0.04072	-0.00598
0.04072	-0.00389
0.04078	-0.00325
0.04078	-0.00486
0.04083	-0.00614
0.04083	-0.00631
0.04089	-0.0018
0.04089	-0.00308
0.04089	-0.00357
0.04094	-0.00228
0.04094	-0.0047
0.041	-0.00212
0.041	-0.00727
0.04106	-0.00598
0.04106	-0.00647
0.04106	-0.00453
0.04111	-0.00421
0.04111	-0.00373
0.04117	-0.00131
0.04117	-0.00743
0.04122	-0.00663
0.04122	-0.00341
0.04122	-0.00679
0.04128	-0.00421
0.04128	-0.00679
0.04133	-0.00663
0.04133	-0.00647
0.04133	-0.00486
0.04139	-0.00888
0.04139	-0.00453
0.04144	-0.00437
0.04144	-0.0047
0.04144	-0.00131
0.0415	-0.00502
0.0415	-0.0047
0.04156	-0.00679
0.04156	-0.00566
0.04161	-0.00405
0.04161	-0.00421
0.04161	-0.00292
0.04167	-0.00389
0.04167	-0.0055
0.04172	-0.00937
0.04172	-0.00904
0.04178	-0.00824
0.04178	-0.00824
0.04178	-0.00566
0.04183	-0.0121
0.04183	-0.01081
0.04189	-0.01049
0.04189	-0.00856
0.04194	-0.00711
0.04194	-0.00695
0.042	-0.0055
0.042	-0.01065
0.042	-0.0092
0.04206	-0.00953
0.04206	-0.0121
0.04206	-0.01275
0.04211	-0.00759
0.04211	-0.0092
0.04217	-0.0084
0.04217	-0.00856
0.04217	-0.00872
0.04222	-0.00888
0.04222	-0.01339
0.04228	-0.01162
0.04228	-0.00904
0.04228	-0.00888
0.04233	-0.00486
0.04233	-0.00856
0.04239	-0.00937
0.04239	-0.01017
0.04244	-0.01146
0.04244	-0.01017
0.04244	-0.01387
0.0425	-0.01387
0.0425	-0.01275
0.04256	-0.00904
0.04256	-0.00792
0.04261	-0.01033
0.04261	-0.0113
0.04261	-0.00856
0.04267	-0.01033
0.04267	-0.01452
0.04272	-0.01065
0.04272	-0.01033
0.04272	-0.0113
0.04278	-0.01194
0.04278	-0.01323
0.04283	-0.00711
0.04283	-0.00743
0.04283	-0.00953
0.04289	-0.01226
0.04289	-0.00856
0.04294	-0.00937
0.04294	-0.01033
0.043	-0.00775
0.043	-0.00953
0.043	-0.01162
0.04306	-0.00985
0.04306	-0.00743
0.04306	-0.00566
0.04311	-0.01371
0.04311	-0.00888
0.04317	-0.01065
0.04317	-0.01065
0.04317	-0.01001
0.04322	-0.01243
0.04322	-0.00357
0.04328	-0.00872
0.04328	-0.01162
0.04328	-0.00775
0.04333	-0.00647
0.04333	-0.01162
0.04339	-0.00727
0.04339	-0.00679
0.04344	-0.00534
0.04344	-0.00888
0.0435	-0.00711
0.0435	-0.01033
0.0435	-0.01323
0.04356	-0.00824
0.04356	-0.0092
0.04361	-0.00969
0.04361	-0.01307
0.04361	-0.00566
0.04367	-0.01049
0.04367	-0.01049
0.04372	-0.00759
0.04372	-0.01017
0.04372	-0.0084
0.04378	-0.01243
0.04378	-0.01001
0.04383	-0.00663
0.04383	-0.00663
0.04383	-0.01001
0.04389	-0.00872
0.04389	-0.00727
0.04394	-0.01081
0.04394	-0.01081
0.04394	-0.01001
0.044	-0.00856
0.044	-0.00985
0.04406	-0.00566
0.04406	-0.01049
0.04406	-0.00486
0.04411	-0.00711
0.04411	-0.00856
0.04417	-0.00743
0.04417	-0.00727
0.04422	-0.00792
0.04422	-0.00357
0.04422	-0.00695
0.04428	-0.00647
0.04428	-0.00308
0.04433	-0.00969
0.04433	-0.00614
0.04439	-0.00631
0.04439	-0.00824
0.04439	-0.00888
0.04444	-0.00341
0.04444	-0.01275
0.0445	-0.00759
0.0445	-0.00775
0.0445	-0.01436
0.04456	-0.00985
0.04456	-0.00663
0.04461	-0.0113
0.04461	-0.0113
0.04461	-0.00663
0.04467	-0.00937
0.04467	-0.00679
0.04472	-0.01114
0.04472	-0.0055
0.04472	-0.0047
0.04478	-0.0092
0.04478	-0.01033
0.04478	-0.01049
0.04483	-0.00679
0.04483	-0.01146
0.04489	-0.00502
0.04489	-0.00276
0.04494	-0.00969
0.04494	-0.00598
0.04494	-0.01033
0.045	-0.00969
0.045	-0.00453
0.04506	-0.0055
0.04506	-0.00631
0.04506	-0.00663
0.04511	-0.00856
0.04511	-0.0084
0.04517	-0.00614
0.04517	-0.00566
0.04522	-0.00373
0.04522	-0.0047
0.04528	-0.00808
0.04528	-0.00486
0.04528	-0.00325
0.04533	-0.00663
0.04533	-0.00904
0.04533	-0.00421
0.04539	-0.00856
0.04539	-0.00389
0.04544	-0.00405
0.04544	-0.00325
0.04544	-0.00502
0.0455	0.00046
0.0455	-0.00308
0.04556	-0.00325
0.04556	-0.00244
0.04556	-0.00099
0.04561	-0.00002
0.04561	-0.00325
0.04561	-0.00373
0.04567	-0.00099
0.04567	-0.00115
0.04572	-0.00276
0.04572	-0.00002
0.04578	-0.00502
0.04578	-0.00083
0.04583	-0.00067
0.04583	-0.00035
0.04583	0.00207
0.04589	0.00287
0.04589	-0.0047
0.04594	0.00223
0.04594	0.00062
0.04594	-0.00244
0.046	-0.00115
0.046	-0.0018
0.04606	-0.00002
0.04606	0.00159
0.04611	-0.00292
0.04611	-0.00115
0.04611	0.00159
0.04617	0.00368
0.04617	0.0011
0.04622	-0.00115
0.04622	0.00046
0.04622	0.00014
0.04628	-0.00405
0.04628	0.00142
0.04633	-0.00002
0.04633	-0.00035
0.04633	-0.00067
0.04639	0.0003
0.04639	-0.00405
0.04639	0.00304
0.04644	0.00014
0.04644	-0.00308
0.04644	-0.00099
0.0465	0.00078
0.0465	-0.00019
0.04656	-0.00308
0.04656	0.00352
0.04661	-0.00453
0.04661	-0.00598
0.04661	-0.00147
0.04667	-0.00164
0.04667	-0.00019
0.04672	-0.00196
0.04672	-0.00083
0.04678	-0.0018
0.04678	0.00159
0.04678	0.00094
0.04683	-0.00308
0.04683	0.00191
0.04689	0.00014
0.04689	-0.00534
0.04694	-0.00131
0.04694	-0.00083
0.04694	0.00078
0.047	-0.00453
0.047	0.00062
0.04706	0.00223
0.04706	0.00255
0.04706	0.00448
0.04711	0.00046
0.04711	0.00191
0.04717	0.00078
0.04717	0.00497
0.04717	-0.0018
0.04722	-0.00212
0.04722	0.00014
0.04722	-0.00067
0.04728	0.00126
0.04728	-0.00051
0.04728	0.00142
0.04733	0.00207
0.04733	0.00207
0.04739	0.0003
0.04739	0.00239
0.04744	-0.00067
0.04744	0.00223
0.0475	0.00078
0.0475	-0.00647
0.0475	-0.00035
0.04756	-0.00389
0.04756	-0.00099
0.04761	0.00416
0.04761	-0.00051
0.04767	-0.00131
0.04767	-0.00308
0.04767	-0.00099
0.04772	-0.00373
0.04772	-0.00115
0.04778	-0.00244
0.04778	0.00014
0.04783	-0.00147
0.04783	-0.00486
0.04783	-0.0047
0.04789	-0.00775
0.04789	-0.0047
0.04789	-0.00759
0.04794	-0.0055
0.04794	-0.00292
0.048	-0.00582
0.048	-0.00759
0.048	-0.00051
0.04806	-0.0055
0.04806	-0.00099
0.04806	-0.00325
0.04811	-0.00389
0.04811	-0.00341
0.04817	0.00142
0.04817	-0.00534
0.04817	-0.00486
0.04822	-0.0055
0.04822	-0.00373
0.04828	-0.00679
0.04828	-0.00373
0.04833	-0.00486
0.04833	-0.00099
0.04839	-0.00453
0.04839	-0.00389
0.04839	-0.00631
0.04844	-0.00453
0.04844	-0.00808
0.0485	-0.00373
0.0485	-0.00405
0.04856	-0.00437
0.04856	-0.00147
0.04856	-0.00341
0.04861	-0.00663
0.04861	-0.00598
0.04867	-0.00405
0.04867	-0.0047
0.04867	-0.00808
0.04872	-0.00582
0.04872	-0.00582
0.04878	-0.00598
0.04878	-0.00598
0.04878	-0.00614
0.04883	-0.00775
0.04883	-0.00872
0.04883	-0.0092
0.04889	-0.00824
0.04889	-0.00695
0.04894	-0.00453
0.04894	-0.00808
0.049	-0.00566
0.049	-0.00518
0.049	-0.00759
0.04906	-0.00663
0.04906	-0.00824
0.04911	-0.00759
0.04911	-0.00695
0.04917	-0.01114
0.04917	-0.00695
0.04922	-0.01049
0.04922	-0.00437
0.04922	-0.00937
0.04928	-0.0113
0.04928	-0.01098
0.04933	-0.00808
0.04933	-0.01065
0.04939	-0.00969
0.04939	-0.01194
0.04939	-0.0113
0.04944	-0.01033
0.04944	-0.00711
0.0495	-0.01146
0.0495	-0.00872
0.04956	-0.00985
0.04956	-0.00453
0.04956	-0.0055
0.04961	-0.00872
0.04961	-0.00727
0.04967	-0.0084
0.04967	-0.0113
0.04967	-0.00872
0.04972	-0.00792
0.04972	-0.00872
0.04972	-0.00325
0.04978	-0.01001
0.04978	-0.00969
0.04983	-0.00775
0.04983	-0.00695
0.04989	-0.01017
0.04989	-0.00743
0.04994	-0.0055
0.04994	-0.00904
0.04994	-0.01017
0.05	-0.01001
0.05	-0.01081
0.05006	-0.0092
0.05006	-0.00582
0.05011	-0.01243
0.05011	-0.0121
0.05011	-0.00775
0.05017	-0.00969
0.05017	-0.00792
0.05022	-0.00953
0.05022	-0.0113
0.05028	-0.01339
0.05028	-0.00808
0.05033	-0.01001
0.05033	-0.01114
0.05033	-0.00631
0.05039	-0.00969
0.05039	-0.00985
0.05044	-0.01017
0.05044	-0.00856
0.05044	-0.00759
0.0505	-0.01307
0.0505	-0.00711
0.05056	-0.00856
0.05056	-0.0047
0.05056	-0.00534
0.05061	-0.00759
0.05061	-0.00695
0.05061	-0.0026
0.05067	-0.00437
0.05067	-0.00985
0.05072	-0.0055
0.05072	-0.00614
0.05078	-0.00695
0.05078	-0.00502
0.05083	-0.00695
0.05083	-0.00663
0.05089	-0.00373
0.05089	-0.00421
0.05089	-0.00904
0.05094	0.00046
0.05094	-0.00341
0.051	-0.0018
0.051	0.00094
0.05106	-0.00228
0.05106	-0.00872
0.05106	0.00062
0.05111	0.00142
0.05111	0.00062
0.05117	0.0003
0.05117	-0.00051
0.05122	0.00175
0.05122	-0.00002
0.05122	0.00223
0.05128	-0.00518
0.05128	0.00255
0.05133	0.00207
0.05133	-0.00019
0.05133	-0.00357
0.05139	0.00126
0.05139	0.00513
0.05144	0.00062
0.05144	0.00239
0.05144	0.0061
0.0515	0.00545
0.0515	0.00159
0.05156	0.0032
0.05156	0.00062
0.05161	0.00432
0.05161	0.0061
0.05161	0.00642
0.05167	0.00126
0.05167	0.00207
0.05172	0.00545
0.05172	0.00883
0.05178	0.0069
0.05178	0.00448
0.05183	0.00674
0.05183	0.00932
0.05183	0.00835
0.05189	0.00593
0.05189	0.00416
0.05194	0.00803
0.05194	0.01109
0.052	0.0061
0.052	0.0061
0.052	0.00899
0.05206	0.00819
0.05206	0.01318
0.05211	0.00593
0.05211	0.00771
0.05211	0.01221
0.05217	0.01189
0.05217	0.00754
0.05222	0.01141
0.05222	0.01221
0.05222	0.00787
0.05228	0.00738
0.05228	0.00964
0.05228	0.01157
0.05233	0.01109
0.05233	0.01238
0.05239	0.01141
0.05239	0.00948
0.05244	0.00996
0.05244	0.0156
0.05244	0.01608
0.0525	0.01431
0.0525	0.01705
0.05256	0.01495
0.05256	0.01978
0.05261	0.01914
0.05261	0.0127
0.05261	0.01431
0.05267	0.01866
0.05267	0.01882
0.05272	0.01737
0.05272	0.01705
0.05278	0.01946
0.05278	0.0185
0.05278	0.01705
0.05283	0.01995
0.05283	0.02011
0.05289	0.01576
0.05289	0.02107
0.05289	0.02301
0.05294	0.02172
0.05294	0.01689
0.053	0.01978
0.053	0.02172
0.053	0.02445
0.05306	0.01914
0.05306	0.02107
0.05311	0.01833
0.05311	0.02204
0.05311	0.01882
0.05317	0.01833
0.05317	0.02268
0.05317	0.02236
0.05322	0.02027
0.05322	0.01946
0.05328	0.02075
0.05328	0.02011
0.05333	0.01785
0.05333	0.02107
0.05339	0.0193
0.05339	0.02172
0.05339	0.02156
0.05344	0.01995
0.05344	0.02123
0.0535	0.01995
0.0535	0.02172
0.05356	0.0185
0.05356	0.01753
0.05356	0.0185
0.05361	0.02107
0.05361	0.01882
0.05367	0.01689
0.05367	0.01866
0.05367	0.0259
0.05372	0.02445
0.05372	0.02236
0.05378	0.02236
0.05378	0.02075
0.05378	0.02317
0.05383	0.02284
0.05383	0.02462
0.05389	0.02123
0.05389	0.02107
0.05389	0.02059
0.05394	0.02494
0.05394	0.02445
0.05394	0.01705
0.054	0.02381
0.054	0.02413
0.05406	0.02333
0.05406	0.01801
0.05411	0.0193
0.05411	0.01978
0.05411	0.02156
0.05417	0.02268
0.05417	0.01721
0.05422	0.01946
0.05422	0.02043
0.05428	0.02268
0.05428	0.01592
0.05428	0.01769
0.05433	0.01334
0.05433	0.01689
0.05439	0.0164
0.05439	0.01479
0.05444	0.01705
0.05444	0.01689
0.05444	0.01624
0.0545	0.01286
0.0545	0.01254
0.05456	0.01318
0.05456	0.01415
0.05456	0.01431
0.05461	0.01221
0.05461	0.01286
0.05467	0.01415
0.05467	0.0106
0.05467	0.01366
0.05472	0.01576
0.05472	0.01447
0.05472	0.0164
0.05478	0.01978
0.05478	0.01656
0.05478	0.01366
0.05483	0.01012
0.05483	0.01318
0.05489	0.0127
0.05489	0.01141
0.05494	0.01012
0.05494	0.0135
0.05494	0.0106
0.055	0.00948
0.055	0.01157
0.05506	0.01656
0.05506	0.00996
0.05506	0.00899
0.05511	0.01012
0.05511	0.01157
0.05517	0.00706
0.05517	0.00899
0.05522	0.00706
0.05522	0.00239
0.05522	0.00223
0.05528	0.0069
0.05528	0.00207
0.05533	0.00271
0.05533	0.0011
0.05533	0.00255
0.05539	0.00352
0.05539	0.00336
0.05544	0.00368
0.05544	-0.00196
0.05544	-0.00228
0.0555	0.0011
0.0555	0.00175
0.05556	0.00336
0.05556	-0.00019
0.05556	-0.00308
0.05561	0.00014
0.05561	-0.00244
0.05561	-0.0026
0.05567	-0.00164
0.05567	-0.00341
0.05572	-0.00244
0.05572	-0.00775
0.05578	-0.00405
0.05578	-0.00421
0.05583	-0.00421
0.05583	-0.00534
0.05583	-0.0026
0.05589	-0.00518
0.05589	-0.00389
0.05594	-0.00437
0.05594	-0.00341
0.05594	-0.00292
0.056	-0.0047
0.056	-0.00888
0.05605	-0.00598
0.05605	-0.00518
0.05611	-0.00566
0.05611	-0.00888
0.05611	-0.00695
0.05617	-0.00437
0.05617	-0.00711
0.05622	-0.0084
0.05622	-0.01001
0.05622	-0.00953
0.05628	-0.00937
0.05628	-0.0113
0.05628	-0.00808
0.05633	-0.00985
0.05633	-0.00888
0.05639	-0.00663
0.05639	-0.0084
0.05639	-0.00969
0.05644	-0.00953
0.05644	-0.00824
0.0565	-0.01098
0.0565	-0.0113
0.0565	-0.00502
0.05655	-0.0121
0.05655	-0.01049
0.05661	-0.01339
0.05661	-0.00969
0.05667	-0.01259
0.05667	-0.0113
0.05672	-0.00872
0.05672	-0.00534
0.05672	-0.00937
0.05678	-0.00904
0.05678	-0.00679
0.05683	-0.00631
0.05683	-0.00679
0.05683	-0.00856
0.05689	-0.00711
0.05689	-0.00743
0.05694	-0.00663
0.05694	-0.00953
0.057	-0.00856
0.057	-0.00582
0.057	-0.00405
0.05705	-0.00373
0.05705	-0.00196
0.05705	-0.00099
0.05711	-0.00147
0.05711	-0.00421
0.05717	0.00175
0.05717	-0.00051
0.05717	0.00094
0.05722	0.00062
0.05722	-0.0018
0.05722	0.00529
0.05728	0.0032
0.05728	-0.00051
0.05733	0.00416
0.05733	0.00658
0.05739	0.01028
0.05739	0.004
0.05739	0.01109
0.05744	0.01205
0.05744	0.00964
0.0575	0.01286
0.0575	0.01463
0.05755	0.01286
0.05755	0.01495
0.05755	0.01801
0.05761	0.0164
0.05761	0.02204
0.05767	0.02043
0.05767	0.02123
0.05772	0.02784
0.05772	0.028
0.05772	0.028
0.05778	0.03009
0.05778	0.02993
0.05783	0.03476
0.05783	0.03686
0.05789	0.03557
0.05789	0.04024
0.05789	0.04249
0.05794	0.04185
0.05794	0.04265
0.05794	0.04829
0.058	0.04845
0.058	0.04716
0.05805	0.04909
0.05805	0.05505
0.05805	0.05538
0.05811	0.0528
0.05811	0.05795
0.05811	0.06262
0.05817	0.0615
0.05817	0.06488
0.05822	0.06745
0.05822	0.06906
0.05828	0.07373
0.05828	0.07937
0.05833	0.07937
0.05833	0.08114
0.05833	0.08211
0.05839	0.09113
0.05839	0.09226
0.05844	0.09435
0.05844	0.09725
0.05844	0.0966
0.0585	0.10095
0.0585	0.10707
0.05855	0.10627
0.05855	0.10997
0.05861	0.11223
0.05861	0.11722
0.05861	0.11722
0.05867	0.12044
0.05867	0.12012
0.05872	0.12575
0.05872	0.13236
0.05872	0.13445
0.05878	0.13364
0.05878	0.1388
0.05883	0.1446
0.05883	0.14379
0.05883	0.14492
0.05889	0.14492
0.05889	0.15361
0.05889	0.1578
0.05894	0.16102
0.05894	0.16134
0.059	0.16392
0.059	0.1694
0.05905	0.176
0.05905	0.17536
0.05911	0.17713
0.05911	0.18148
0.05911	0.18534
0.05917	0.18985
0.05917	0.19533
0.05922	0.19629
0.05922	0.20161
0.05928	0.20145
0.05928	0.20805
0.05928	0.21095
0.05933	0.21111
0.05933	0.2198
0.05939	0.2248
0.05939	0.22351
0.05944	0.23108
0.05944	0.23478
0.05944	0.23591
0.0595	0.24267
0.0595	0.24831
0.05955	0.25056
0.05955	0.25105
0.05955	0.25733
0.05961	0.26345
0.05961	0.26216
0.05967	0.26651
0.05967	0.26925
0.05967	0.27327
0.05972	0.28052
0.05972	0.28326
0.05978	0.28181
0.05978	0.29163
0.05983	0.29373
0.05983	0.29872
0.05983	0.30065
0.05989	0.3087
0.05989	0.31369
0.05994	0.31369
0.05994	0.31965
0.06	0.3261
0.06	0.33093
0.06005	0.32996
0.06005	0.34011
0.06005	0.34494
0.06011	0.34526
0.06011	0.34607
0.06017	0.35589
0.06017	0.36153
0.06022	0.36362
0.06022	0.36668
0.06022	0.37151
0.06028	0.37779
0.06028	0.3794
0.06033	0.38552
0.06033	0.38391
0.06039	0.39261
0.06039	0.3968
0.06039	0.39502
0.06044	0.40195
0.06044	0.41081
0.0605	0.41097
0.0605	0.41467
0.0605	0.4166
0.06055	0.42272
0.06055	0.4253
0.06061	0.42514
0.06061	0.4348
0.06061	0.43674
0.06067	0.44302
0.06067	0.44141
0.06072	0.44801
0.06072	0.45171
0.06078	0.4522
0.06078	0.46427
0.06078	0.46363
0.06083	0.47233
0.06083	0.47168
0.06089	0.47651
0.06089	0.48135
0.06094	0.48489
0.06094	0.48827
0.061	0.49358
0.061	0.4923
0.061	0.50115
0.06105	0.50228
0.06105	0.50695
0.06111	0.50969
0.06111	0.51323
0.06117	0.51484
0.06117	0.52644
0.06117	0.5229
0.06122	0.52547
0.06122	0.53433
0.06128	0.53046
0.06128	0.53449
0.06128	0.54109
0.06133	0.54641
0.06133	0.54287
0.06139	0.54818
0.06139	0.55591
0.06139	0.55527
0.06144	0.55478
0.06144	0.55897
0.0615	0.56654
0.0615	0.56702
0.06155	0.56541
0.06155	0.57443
0.06161	0.57926
0.06161	0.5783
0.06161	0.57942
0.06167	0.58941
0.06167	0.58715
0.06172	0.59021
0.06172	0.59714
0.06178	0.59617
0.06178	0.59794
0.06178	0.60213
0.06183	0.60116
0.06183	0.60535
0.06189	0.61115
0.06189	0.61051
0.06194	0.61228
0.06194	0.61759
0.06194	0.61582
0.062	0.61791
0.062	0.62097
0.06205	0.6221
0.06205	0.62725
0.06211	0.62935
0.06211	0.6279
0.06211	0.63627
0.06217	0.63192
0.06217	0.63402
0.06217	0.63354
0.06222	0.64046
0.06222	0.63821
0.06228	0.64094
0.06228	0.644
0.06228	0.64529
0.06233	0.64674
0.06233	0.64271
0.06239	0.64755
0.06239	0.65206
0.06244	0.64513
0.06244	0.64883
0.06244	0.65479
0.0625	0.65189
0.0625	0.65431
0.06255	0.65801
0.06255	0.65979
0.06261	0.65415
0.06261	0.65898
0.06261	0.65882
0.06267	0.65576
0.06267	0.66043
0.06272	0.65946
0.06272	0.65962
0.06272	0.6622
0.06278	0.66574
0.06278	0.66236
0.06283	0.66574
0.06283	0.66446
0.06289	0.66317
0.06289	0.66236
0.06289	0.668
0.06294	0.66816
0.06294	0.66381
0.063	0.66252
0.063	0.65737
0.063	0.66365
0.06305	0.66285
0.06305	0.66607
0.06305	0.66107
0.06311	0.66671
0.06311	0.66236
0.06317	0.65882
0.06317	0.65946
0.06322	0.66188
0.06322	0.65785
0.06322	0.66075
0.06328	0.6593
0.06328	0.6556
0.06333	0.65737
0.06333	0.65463
0.06339	0.65463
0.06339	0.65012
0.06339	0.64932
0.06344	0.65093
0.06344	0.64803
0.0635	0.64722
0.0635	0.64481
0.06355	0.64271
0.06355	0.63804
0.06355	0.64094
0.06361	0.63515
0.06361	0.63498
0.06367	0.63676
0.06367	0.6345
0.06367	0.62822
0.06372	0.62806
0.06372	0.6213
0.06378	0.62419
0.06378	0.62371
0.06378	0.62097
0.06383	0.62049
0.06383	0.61131
0.06389	0.61743
0.06389	0.61518
0.06389	0.61034
0.06394	0.61292
0.06394	0.61002
0.06394	0.60809
0.064	0.60583
0.064	0.59939
0.06405	0.60277
0.06405	0.59376
0.06411	0.59279
0.06411	0.59327
0.06411	0.58925
0.06417	0.5849
0.06417	0.5857
0.06422	0.58103
0.06422	0.57636
0.06428	0.57507
0.06428	0.57459
0.06428	0.56445
0.06433	0.56187
0.06433	0.56058
0.06439	0.56106
0.06439	0.55237
0.06439	0.5543
0.06444	0.55301
0.06444	0.54625
0.0645	0.53932
0.0645	0.54142
0.06455	0.53658
0.06455	0.53272
0.06455	0.53224
0.06461	0.52757
0.06461	0.52306
0.06461	0.51967
0.06467	0.51774
0.06467	0.51517
0.06472	0.51001
0.06472	0.5076
0.06472	0.50792
0.06478	0.50599
0.06478	0.5026
0.06478	0.49938
0.06483	0.49326
0.06483	0.49181
0.06489	0.48714
0.06489	0.48215
0.06494	0.47877
0.06494	0.47877
0.06494	0.47265
0.065	0.46911
0.065	0.46089
0.06505	0.45848
0.06505	0.45735
0.06505	0.45171
0.06511	0.45139
0.06511	0.44914
0.06517	0.44028
0.06517	0.43706
0.06522	0.434
0.06522	0.42852
0.06522	0.42707
0.06528	0.42546
0.06528	0.41564
0.06533	0.41161
0.06533	0.41193
0.06533	0.41016
0.06539	0.40388
0.06539	0.40066
0.06544	0.39728
0.06544	0.39132
0.06544	0.38665
0.0655	0.38278
0.0655	0.38343
0.0655	0.37795
0.06555	0.37618
0.06555	0.3757
0.06555	0.37054
0.06561	0.36281
0.06561	0.35847
0.06567	0.35637
0.06567	0.35621
0.06572	0.34864
0.06572	0.34607
0.06572	0.34059
0.06578	0.33721
0.06578	0.3327
0.06583	0.32593
0.06583	0.32561
0.06589	0.31692
0.06589	0.31917
0.06589	0.31321
0.06594	0.30774
0.06594	0.305
0.066	0.30162
0.066	0.29582
0.06605	0.29292
0.06605	0.28616
0.06605	0.28229
0.06611	0.27714
0.06611	0.27794
0.06617	0.27585
0.06617	0.26844
0.06617	0.26087
0.06622	0.26087
0.06622	0.26055
0.06628	0.25443
0.06628	0.25073
0.06628	0.25008
0.06633	0.24428
0.06633	0.23784
0.06633	0.23768
0.06639	0.23398
0.06639	0.23204
0.06639	0.22447
0.06644	0.22125
0.06644	0.22093
0.0665	0.219
0.0665	0.21513
0.06655	0.21207
0.06655	0.20402
0.06661	0.20289
0.06661	0.19903
0.06661	0.19259
0.06667	0.19162
0.06667	0.18856
0.06672	0.18228
0.06672	0.18003
0.06672	0.17439
0.06678	0.17471
0.06678	0.16618
0.06683	0.16295
0.06683	0.16231
0.06689	0.1578
0.06689	0.15619
0.06689	0.152
0.06694	0.15184
0.06694	0.14443
0.067	0.14395
0.067	0.13767
0.067	0.13477
0.06705	0.13348
0.06705	0.12865
0.06711	0.12785
0.06711	0.1235
0.06711	0.11963
0.06717	0.11899
0.06717	0.11464
0.06717	0.10868
0.06722	0.11367
0.06722	0.11029
0.06722	0.10482
0.06728	0.1024
0.06728	0.09934
0.06733	0.09854
0.06733	0.09564
0.06739	0.09016
0.06739	0.08775
0.06744	0.08791
0.06744	0.0834
0.06744	0.08372
0.0675	0.08082
0.0675	0.07406
0.06755	0.07841
0.06755	0.07309
0.06761	0.06745
0.06761	0.06713
0.06761	0.06681
0.06767	0.0681
0.06767	0.05972
0.06772	0.05763
0.06772	0.05699
0.06772	0.05666
0.06778	0.05505
0.06778	0.04845
0.06783	0.05248
0.06783	0.04845
0.06789	0.04459
0.06789	0.04459
0.06789	0.04217
0.06794	0.04185
0.06794	0.03782
0.06794	0.03589
0.068	0.0346
0.068	0.03653
0.06805	0.03074
0.06805	0.03138
0.06805	0.02832
0.06811	0.03106
0.06811	0.02687
0.06817	0.02445
0.06817	0.02655
0.06817	0.02768
0.06822	0.02462
0.06822	0.02317
0.06828	0.02156
0.06828	0.01576
0.06833	0.01576
0.06833	0.01721
0.06833	0.01801
0.06839	0.01221
0.06839	0.01221
0.06844	0.01447
0.06844	0.00835
0.0685	0.01286
0.0685	0.00545
0.0685	0.0061
0.06855	0.00787
0.06855	0.00352
0.06861	0.00513
0.06861	0.00448
0.06867	0.00448
0.06867	-0.00051
0.06867	0.00159
0.06872	-0.00147
0.06872	-0.00019
0.06872	-0.00035
0.06878	-0.00437
0.06878	-0.00341
0.06883	-0.00131
0.06883	-0.00357
0.06883	-0.00824
0.06889	0.00336
0.06889	-0.00647
0.06894	-0.00614
0.06894	-0.00308
0.069	-0.00711
0.069	-0.01033
0.069	-0.00582
0.06905	-0.00566
0.06905	-0.00808
0.06911	-0.00775
0.06911	-0.00759
0.06917	-0.00566
0.06917	-0.0092
0.06922	-0.01001
0.06922	-0.01017
0.06922	-0.01275
0.06928	-0.01226
0.06928	-0.0092
0.06933	-0.00824
0.06933	-0.00985
0.06939	-0.00985
0.06939	-0.01194
0.06939	-0.01259
0.06944	-0.01081
0.06944	-0.00614
0.0695	-0.01033
0.0695	-0.00824
0.0695	-0.01371
0.06955	-0.0113
0.06955	-0.00727
0.06961	-0.01194
0.06961	-0.01017
0.06961	-0.00937
0.06967	-0.01114
0.06967	-0.01371
0.06972	-0.00985
0.06972	-0.0092
0.06972	-0.01371
0.06978	-0.01146
0.06978	-0.00985
0.06983	-0.00743
0.06983	-0.00695
0.06989	-0.00985
0.06989	-0.00808
0.06989	-0.0084
0.06994	-0.00808
0.06994	-0.00985
0.07	-0.00711
0.07	-0.00695
0.07005	-0.00663
0.07005	-0.00292
0.07011	-0.00727
0.07011	-0.00534
0.07011	-0.00614
0.07017	-0.0055
0.07017	-0.00647
0.07022	-0.00872
0.07022	-0.00164
0.07028	-0.00598
0.07028	-0.00824
0.07028	-0.00308
0.07033	-0.00083
0.07033	-0.00035
0.07039	-0.00099
0.07039	-0.00341
0.07039	-0.00582
0.07044	-0.00067
0.07044	-0.00115
0.0705	0.00593
0.0705	0.00014
0.0705	0.00239
0.07055	0.00271
0.07055	0.00207
0.07061	-0.00002
0.07061	0.00255
0.07061	0.00513
0.07067	0.00497
0.07067	0.00142
0.07072	0.00126
0.07072	0.0069
0.07078	0.004
0.07078	0.00465
0.07083	0.00448
0.07083	0.00561
0.07083	0.00658
0.07089	0.00497
0.07089	0.0106
0.07094	0.00642
0.07094	0.00771
0.071	0.00867
0.071	0.00835
0.07105	0.01093
0.07105	0.01077
0.07105	0.01238
0.07111	0.01109
0.07111	0.0098
0.07117	0.01077
0.07117	0.01077
0.07122	0.01431
0.07122	0.01318
0.07122	0.01141
0.07128	0.0127
0.07128	0.01495
0.07133	0.01447
0.07133	0.0106
0.07133	0.0135
0.07139	0.01286
0.07139	0.01109
0.07139	0.01785
0.07144	0.01769
0.07144	0.01125
0.0715	0.01511
0.0715	0.01978
0.07155	0.01914
0.07155	0.0156
0.07155	0.01689
0.07161	0.01721
0.07161	0.01737
0.07167	0.0193
0.07167	0.01527
0.07172	0.01366
0.07172	0.01801
0.07178	0.01801
0.07178	0.0164
0.07178	0.01898
0.07183	0.01978
0.07183	0.02204
0.07189	0.01978
0.07189	0.02027
0.07194	0.01962
0.07194	0.01817
0.07194	0.02156
0.072	0.01962
0.072	0.02107
0.07205	0.01753
0.07205	0.02204
0.07205	0.02156
0.07211	0.02204
0.07211	0.01914
0.07217	0.02655
0.07217	0.02011
0.07217	0.02156
0.07222	0.0222
0.07222	0.02317
0.07222	0.02429
0.07228	0.01866
0.07228	0.02091
0.07233	0.02139
0.07233	0.02252
0.07233	0.01978
0.07239	0.01866
0.07239	0.02236
0.07244	0.02204
0.07244	0.02236
0.0725	0.02059
0.0725	0.01914
0.07255	0.02317
0.07255	0.01882
0.07255	0.01898
0.07261	0.02317
0.07261	0.01978
0.07267	0.01882
0.07267	0.02204
0.07267	0.01978
0.07272	0.01737
0.07272	0.01898
0.07278	0.02268
0.07278	0.01833
0.07283	0.02236
0.07283	0.01882
0.07283	0.0193
0.07289	0.01608
0.07289	0.0185
0.07294	0.01801
0.07294	0.01995
0.07294	0.0193
0.073	0.01737
0.073	0.02075
0.07305	0.01737
0.07305	0.01753
0.07305	0.0164
0.07311	0.01753
0.07311	0.01624
0.07311	0.02011
0.07317	0.0156
0.07317	0.0135
0.07322	0.01415
0.07322	0.01463
0.07328	0.01689
0.07328	0.01366
0.07328	0.01721
0.07333	0.01366
0.07333	0.01495
0.07339	0.01479
0.07339	0.01238
0.07344	0.0127
0.07344	0.01366
0.07344	0.01318
0.0735	0.01479
0.0735	0.01205
0.07355	0.01576
0.07355	0.01447
0.07361	0.01238
0.07361	0.00899
0.07361	0.00996
0.07367	0.00738
0.07367	0.01205
0.07372	0.01028
0.07372	0.0106
0.07372	0.01157
0.07378	0.01109
0.07378	0.00948
0.07383	0.00835
0.07383	0.00497
0.07383	0.00642
0.07389	0.00481
0.07389	0.0061
0.07389	0.00513
0.07394	0.00706
0.07394	0.00465
0.074	0.00626
0.074	0.00626
0.074	0.00513
0.07405	0.00561
0.07405	0.00642
0.07411	0.00642
0.07411	0.00835
0.07417	0.00642
0.07417	0.00448
0.07422	0.00384
0.07422	0.00191
0.07422	0.00191
0.07428	0.00239
0.07428	0.00046
0.07433	0.00384
0.07433	0.00287
0.07433	0.00159
0.07439	0.00159
0.07439	0.0003
0.07444	-0.00019
0.07444	0.00094
0.0745	0.00207
0.0745	-0.00002
0.0745	0.00175
0.07455	-0.00244
0.07455	-0.00325
0.07461	-0.00292
0.07461	-0.0018
0.07461	-0.00002
0.07467	-0.00067
0.07467	-0.0018
0.07467	-0.00067
0.07472	-0.00486
0.07472	-0.00518
0.07472	-0.00647
0.07478	-0.00775
0.07478	-0.00228
0.07483	-0.0026
0.07483	-0.00856
0.07489	-0.00631
0.07489	-0.00276
0.07494	-0.00534
0.07494	-0.00695
0.07494	-0.00614
0.075	-0.00743
0.075	-0.00486
0.07505	-0.0026
0.07505	-0.00904
0.07505	-0.00937
0.07511	-0.00437
0.07511	-0.00598
0.07517	-0.00759
0.07517	-0.00792
0.07522	-0.00856
0.07522	-0.01065
0.07522	-0.0055
0.07528	-0.00953
0.07528	-0.00792
0.07533	-0.00792
0.07533	-0.01098
0.07533	-0.0113
0.07539	-0.01081
0.07539	-0.00904
0.07544	-0.01323
0.07544	-0.01178
0.07544	-0.01065
0.0755	-0.01243
0.0755	-0.0142
0.0755	-0.01033
0.07555	-0.00969
0.07555	-0.01194
0.07555	-0.0121
0.07561	-0.01226
0.07561	-0.01355
0.07567	-0.00373
0.07567	-0.00969
0.07572	-0.01146
0.07572	-0.00872
0.07578	-0.01243
0.07578	-0.01033
0.07578	-0.01371
0.07583	-0.01114
0.07583	-0.01114
0.07589	-0.0121
0.07589	-0.01065
0.07594	-0.01098
0.07594	-0.01291
0.07594	-0.01178
0.076	-0.01146
0.076	-0.01114
0.07605	-0.00711
0.07605	-0.01017
0.07605	-0.01339
0.07611	-0.00937
0.07611	-0.00743
0.07617	-0.00631
0.07617	-0.00759
0.07617	-0.01178
0.07622	-0.0142
0.07622	-0.00824
0.07628	-0.01371
0.07628	-0.01162
0.07628	-0.01033
0.07633	-0.00663
0.07633	-0.01146
0.07633	-0.00904
0.07639	-0.01001
0.07639	-0.01033
0.07644	-0.00824
0.07644	-0.01178
0.07644	-0.00679
0.0765	-0.01065
0.0765	-0.01001
0.07655	-0.01033
0.07655	-0.01098
0.07661	-0.00888
0.07661	-0.01339
0.07667	-0.01049
0.07667	-0.00969
0.07667	-0.01001
0.07672	-0.01065
0.07672	-0.00647
0.07678	-0.01049
0.07678	-0.00872
0.07678	-0.00808
0.07683	-0.01081
0.07683	-0.01178
0.07689	-0.00969
0.07689	-0.00743
0.07694	-0.00582
0.07694	-0.01226
0.07694	-0.01049
0.077	-0.00888
0.077	-0.00759
0.07705	-0.00888
0.07705	-0.00985
0.07705	-0.00985
0.07711	-0.01033
0.07711	-0.00759
0.07711	-0.0084
0.07717	-0.0113
0.07717	-0.00937
0.07722	-0.00824
0.07722	-0.00888
0.07722	-0.00953
0.07728	-0.00904
0.07728	-0.00792
0.07733	-0.00953
0.07733	-0.00808
0.07733	-0.00969
0.07739	-0.01098
0.07739	-0.0092
0.07744	-0.01001
0.07744	-0.00808
0.0775	-0.0055
0.0775	-0.00824
0.0775	-0.00518
0.07755	-0.00824
0.07755	-0.00888
0.07761	-0.00631
0.07761	-0.0047
0.07767	-0.00437
0.07767	-0.00711
0.07767	-0.00614
0.07772	-0.00679
0.07772	-0.00453
0.07778	-0.00196
0.07778	-0.00341
0.07778	-0.00743
0.07783	-0.00453
0.07783	-0.00357
0.07789	-0.00051
0.07789	-0.00453
0.07789	-0.00421
0.07794	-0.00099
0.07794	-0.00421
0.078	-0.00405
0.078	-0.00147
0.078	-0.00244
0.07805	-0.00502
0.07805	-0.00067
0.07805	-0.00582
0.07811	-0.00389
0.07811	-0.00244
0.07817	0.00078
0.07817	-0.00389
0.07822	-0.00308
0.07822	-0.00308
0.07828	-0.00405
0.07828	-0.00276
0.07828	-0.00164
0.07833	-0.00196
0.07833	-0.00115
0.07839	0.0003
0.07839	-0.00196
0.07844	-0.00341
0.07844	-0.00228
0.07844	-0.00308
0.0785	-0.00357
0.0785	-0.00196
0.07855	-0.00196
0.07855	-0.00373
0.07855	-0.00002
0.07861	-0.00035
0.07861	-0.00244
0.07867	-0.00228
0.07867	-0.00341
0.07872	-0.00131
0.07872	-0.00002
0.07872	0.00223
0.07878	-0.0018
0.07878	0.0003
0.07878	0.0011
0.07883	-0.00389
0.07883	-0.00212
0.07889	-0.00099
0.07889	0.00014
0.07889	-0.00099
0.07894	-0.00147
0.07894	0.00223
0.079	0.00078
0.079	-0.00341
0.07905	0.0003
0.07905	-0.00341
0.07911	0.00207
0.07911	0.0011
0.07917	-0.00373
0.07917	0.00142
0.07917	-0.00051
0.07922	-0.00196
0.07922	0.0003
0.07928	0.00175
0.07928	0.00142
0.07933	-0.00212
0.07933	-0.00035
0.07933	0.00159
0.07939	-0.00164
0.07939	-0.00035
0.07944	0.00014
0.07944	-0.00083
0.0795	-0.00051
0.0795	0.00223
0.0795	0.00368
0.07955	0.00191
0.07955	0.00239
0.07961	0.0011
0.07961	-0.00389
0.07961	-0.00115
0.07967	-0.00099
0.07967	0.00078
0.07967	0.00159
0.07972	0.00207
0.07972	0.00014
0.07978	-0.00051
0.07978	-0.00341
0.07983	-0.00131
0.07983	-0.00147
0.07983	-0.00115
0.07989	-0.00566
0.07989	0.00159
0.07994	-0.00099
0.07994	-0.00002
0.08	0.0011
0.08	-0.00341
0.08005	-0.00244
0.08005	0.0003
0.08005	-0.00276
0.08011	-0.00196
0.08011	-0.00534
0.08017	-0.00325
0.08017	-0.00276
0.08022	-0.00164
0.08022	-0.00244
0.08028	-0.00437
0.08028	-0.00196
0.08028	-0.00341
0.08033	-0.00421
0.08033	-0.00405
0.08039	-0.00341
0.08039	-0.00759
0.08039	-0.0047
0.08044	-0.00824
0.08044	-0.00357
0.0805	-0.00453
0.0805	-0.00308
0.0805	-0.00389
0.08055	-0.00663
0.08055	-0.00534
0.08061	-0.00453
0.08061	-0.00405
0.08061	-0.00566
0.08067	-0.00502
0.08067	-0.0047
0.08072	-0.00357
0.08072	-0.00518
0.08078	-0.00582
0.08078	-0.00631
0.08083	-0.00534
0.08083	-0.00743
0.08083	-0.00759
0.08089	-0.00953
0.08089	-0.00969
0.08094	-0.00808
0.08094	-0.00437
0.081	-0.00421
0.081	-0.00711
0.08105	-0.0047
0.08105	-0.00695
0.08105	-0.00759
0.08111	-0.00647
0.08111	-0.00695
0.08117	-0.00534
0.08117	-0.00647
0.08122	-0.0047
0.08122	-0.00856
0.08122	-0.00888
0.08128	-0.01081
0.08128	-0.01017
0.08133	-0.00792
0.08133	-0.00759
0.08133	-0.00711
0.08139	-0.0084
0.08139	-0.0113
0.08144	-0.01339
0.08144	-0.00824
0.08144	-0.00775
0.0815	-0.00969
0.0815	-0.00985
0.08155	-0.00872
0.08155	-0.00695
0.08161	-0.00711
0.08161	-0.00969
0.08161	-0.01146
0.08167	-0.01243
0.08167	-0.00486
0.08172	-0.01065
0.08172	-0.00953
0.08178	-0.01387
0.08178	-0.00904
0.08183	-0.00904
0.08183	-0.01114
0.08183	-0.00985
0.08189	-0.01516
0.08189	-0.00759
0.08194	-0.00759
0.08194	-0.01243
0.082	-0.01146
0.082	-0.01226
0.082	-0.00872
0.08205	-0.00647
0.08205	-0.00792
0.08211	-0.01259
0.08211	-0.01323
0.08211	-0.01065
0.08217	-0.01226
0.08217	-0.01146
0.08222	-0.00743
0.08222	-0.00904
0.08222	-0.01001
0.08228	-0.00953
0.08228	-0.01098
0.08228	-0.01081
0.08233	-0.01146
0.08233	-0.01098
0.08239	-0.00969
0.08239	-0.01114
0.08244	-0.00985
0.08244	-0.01162
0.0825	-0.0113
0.0825	-0.00904
0.0825	-0.00647
0.08255	-0.0084
0.08255	-0.01001
0.08261	-0.01226
0.08261	-0.01098
0.08267	-0.0121
0.08267	-0.0121
0.08267	-0.0121
0.08272	-0.01049
0.08272	-0.00743
0.08278	-0.01033
0.08278	-0.00808
0.08283	-0.01114
0.08283	-0.00969
0.08283	-0.01355
0.08289	-0.00743
0.08289	-0.00872
0.08294	-0.00904
0.08294	-0.00904
0.08294	-0.0121
0.083	-0.01098
0.083	-0.00856
0.08305	-0.00775
0.08305	-0.00953
0.08305	-0.00743
0.08311	-0.01049
0.08311	-0.00727
0.08311	-0.00711
0.08317	-0.01098
0.08317	-0.0113
0.08322	-0.00759
0.08322	-0.01033
0.08328	-0.01146
0.08328	-0.00808
0.08328	-0.00727
0.08333	-0.01194
0.08333	-0.01371
0.08339	-0.01323
0.08339	-0.01017
0.08344	-0.01114
0.08344	-0.00727
0.08344	-0.0113
0.0835	-0.01049
0.0835	-0.01001
0.08355	-0.00888
0.08355	-0.00985
0.08361	-0.01194
0.08361	-0.01049
0.08361	-0.00904
0.08367	-0.00888
0.08367	-0.00969
0.08372	-0.01114
0.08372	-0.01371
0.08372	-0.01339
0.08378	-0.01404
0.08378	-0.01275
0.08383	-0.01339
0.08383	-0.00904
0.08383	-0.01291
0.08389	-0.01114
0.08389	-0.01194
0.08389	-0.01098
0.08394	-0.01259
0.08394	-0.01146
0.084	-0.01194
0.084	-0.01146
0.084	-0.0121
0.08405	-0.01098
0.08405	-0.00759
0.08411	-0.00711
0.08411	-0.00856
0.08417	-0.01098
0.08417	-0.01194
0.08422	-0.00888
0.08422	-0.00824
0.08422	-0.00985
0.08428	-0.00888
0.08428	-0.01146
0.08433	-0.01387
0.08433	-0.01114
0.08439	-0.01178
0.08439	-0.00792
0.08439	-0.00695
0.08444	-0.00453
0.08444	-0.00824
0.0845	-0.00727
0.0845	-0.00437
0.0845	-0.00856
0.08455	-0.00486
0.08455	-0.00792
0.08461	-0.0084
0.08461	-0.01259
0.08461	-0.00937
0.08467	-0.00824
0.08467	-0.01017
0.08467	-0.01049
0.08472	-0.01049
0.08472	-0.00985
0.08478	-0.00743
0.08478	-0.00582
0.08478	-0.0047
0.08483	-0.00341
0.08483	-0.00598
0.08489	-0.00888
0.08489	-0.00743
0.08489	-0.01178
0.08494	-0.00904
0.08494	-0.00631
0.085	-0.01146
0.085	-0.0113
0.08505	-0.00808
0.08505	-0.00953
0.08505	-0.00953
0.08511	-0.00937
0.08511	-0.01001
0.08517	-0.00453
0.08517	-0.00598
0.08522	-0.00824
0.08522	-0.0084
0.08522	-0.01243
0.08528	-0.00631
0.08528	-0.00647
0.08533	-0.00534
0.08533	-0.00711
0.08533	-0.01017
0.08539	-0.00518
0.08539	-0.01033
0.08544	-0.01114
0.08544	-0.01001
0.08544	-0.0055
0.0855	-0.00614
0.0855	-0.00792
0.0855	-0.00566
0.08555	-0.00824
0.08555	-0.00647
0.08555	-0.0084
0.08561	-0.00292
0.08561	-0.01001
0.08567	-0.00775
0.08567	-0.00437
0.08572	-0.00244
0.08572	-0.00808
0.08578	-0.00808
0.08578	-0.00663
0.08583	-0.00437
0.08583	-0.01001
0.08583	-0.00824
0.08589	-0.0092
0.08589	-0.00582
0.08594	-0.00775
0.08594	-0.00566
0.086	-0.01484
0.086	-0.01081
0.086	-0.00856
0.08605	-0.00212
0.08605	-0.00341
0.08611	-0.0047
0.08611	-0.00421
0.08611	-0.00437
0.08617	-0.00276
0.08617	-0.00679
0.08622	-0.00695
0.08622	-0.00775
0.08622	-0.00679
0.08628	-0.00856
0.08628	-0.01033
0.08633	-0.00308
0.08633	-0.0084
0.08633	-0.00276
0.08639	-0.00228
0.08639	-0.0055
0.08639	-0.00759
0.08644	-0.01323
0.08644	-0.00775
0.0865	-0.00502
0.0865	-0.0047
0.08655	-0.00824
0.08655	-0.00695
0.08655	-0.00228
0.08661	-0.00759
0.08661	-0.01065
0.08667	-0.00518
0.08667	-0.00437
0.08672	-0.00775
0.08672	-0.00985
0.08678	-0.00389
0.08678	-0.01178
0.08678	-0.00953
0.08683	-0.00808
0.08683	-0.00904
0.08689	-0.00711
0.08689	-0.00937
0.08689	-0.01001
0.08694	-0.01275
0.08694	-0.00743
0.087	-0.00743
0.087	-0.00953
0.08705	-0.00904
0.08705	-0.0055
0.08705	-0.00792
0.08711	-0.00631
0.08711	-0.00518
0.08717	-0.00647
0.08717	-0.00872
0.08717	-0.00679
0.08722	-0.00631
0.08722	-0.00582
0.08722	-0.0092
0.08728	-0.01049
0.08728	-0.01017
0.08728	-0.00937
0.08733	-0.00953
0.08733	-0.00679
0.08739	-0.01033
0.08739	-0.0055
0.08744	-0.01017
0.08744	-0.00969
0.0875	-0.01081
0.0875	-0.01049
0.0875	-0.00679
0.08755	-0.00663
0.08755	-0.01114
0.08761	-0.01178
0.08761	-0.01146
0.08767	-0.01146
0.08767	-0.00775
0.08767	-0.00969
0.08772	-0.00631
0.08772	-0.0092
0.08778	-0.00888
0.08778	-0.00888
0.08783	-0.00808
0.08783	-0.01065
0.08783	-0.00598
0.08789	-0.00502
0.08789	-0.00582
0.08794	-0.00566
0.08794	-0.01081
0.08794	-0.01065
0.088	-0.01194
0.088	-0.00969
0.088	-0.00888
0.08805	-0.00985
0.08805	-0.00647
0.08811	-0.00598
0.08811	-0.01146
0.08811	-0.00904
0.08817	-0.00904
0.08817	-0.00904
0.08822	-0.01404
0.08822	-0.0055
0.08828	-0.00647
0.08828	-0.00888
0.08828	-0.0113
0.08833	-0.00969
0.08833	-0.0113
0.08839	-0.01081
0.08839	-0.00872
0.08844	-0.01033
0.08844	-0.01387
0.08844	-0.00759
0.0885	-0.01178
0.0885	-0.01081
0.08855	-0.01098
0.08855	-0.01065
0.08861	-0.00888
0.08861	-0.01065
0.08861	-0.0113
0.08867	-0.01226
0.08867	-0.01065
0.08872	-0.01098
0.08872	-0.01404
0.08872	-0.01291
0.08878	-0.00679
0.08878	-0.00631
0.08883	-0.01065
0.08883	-0.01001
0.08883	-0.00663
0.08889	-0.00888
0.08889	-0.00888
0.08894	-0.01114
0.08894	-0.00985
0.08894	-0.01001
0.089	-0.00937
0.089	-0.01081
0.08905	-0.01049
0.08905	-0.00985
0.08911	-0.01194
0.08911	-0.01162
0.08917	-0.0084
0.08917	-0.00727
0.08917	-0.01049
0.08922	-0.01098
0.08922	-0.00969
0.08928	-0.01001
0.08928	-0.0121
0.08933	-0.01178
0.08933	-0.01226
0.08933	-0.00792
0.08939	-0.01275
0.08939	-0.00824
0.08944	-0.01065
0.08944	-0.01178
0.0895	-0.01243
0.0895	-0.01065
0.0895	-0.01178
0.08955	-0.01162
0.08955	-0.00904
0.08961	-0.00937
0.08961	-0.00953
0.08961	-0.00824
0.08967	-0.01001
0.08967	-0.01339
0.08972	-0.0113
0.08972	-0.00808
0.08972	-0.00888
0.08978	-0.01081
0.08978	-0.01226
0.08983	-0.00969
0.08983	-0.01323
0.08989	-0.0092
0.08989	-0.00775
0.08989	-0.01033
0.08994	-0.00953
0.08994	-0.01452
0.09	-0.01226
0.09	-0.01468
0.09005	-0.01081
0.09005	-0.01355
0.09011	-0.01162
0.09011	-0.00888
0.09017	-0.015
0.09017	-0.00953
0.09017	-0.0084
0.09022	-0.00953
0.09022	-0.01178
0.09028	-0.00872
0.09028	-0.01065
0.09033	-0.01178
0.09033	-0.01033
0.09033	-0.00824
0.09039	-0.01098
0.09039	-0.01323
0.09044	-0.00743
0.09044	-0.00775
0.09044	-0.01065
0.0905	-0.01275
0.0905	-0.01049
0.09055	-0.00888
0.09055	-0.01049
0.09055	-0.01259
0.09061	-0.01259
0.09061	-0.00743
0.09067	-0.00663
0.09067	-0.01098
0.09067	-0.00985
0.09072	-0.01081
0.09072	-0.00969
0.09078	-0.00679
0.09078	-0.01098
0.09083	-0.01323
0.09083	-0.00953
0.09089	-0.0092
0.09089	-0.01436
0.09094	-0.01114
0.09094	-0.01017
0.09094	-0.01049
0.091	-0.0084
0.091	-0.01162
0.09105	-0.00711
0.09105	-0.01065
0.09111	-0.01162
0.09111	-0.00679
0.09117	-0.00985
0.09117	-0.01162
0.09117	-0.00969
0.09122	-0.01017
0.09122	-0.00566
0.09128	-0.00743
0.09128	-0.00985
0.09128	-0.01243
0.09133	-0.01194
0.09133	-0.0055
0.09139	-0.00969
0.09139	-0.0121
0.09139	-0.01017
0.09144	-0.0084
0.09144	-0.01049
0.09144	-0.01162
0.0915	-0.00872
0.0915	-0.00856
0.09155	-0.00695
0.09155	-0.01243
0.09161	-0.00985
0.09161	-0.00421
0.09167	-0.00792
0.09167	-0.00953
0.09172	-0.00808
0.09172	-0.00969
0.09172	-0.00953
0.09178	-0.01017
0.09178	-0.00759
0.09183	-0.0092
0.09183	-0.00904
0.09189	-0.01017
0.09189	-0.00727
0.09194	-0.00437
0.09194	-0.00888
0.09194	-0.00631
0.092	-0.01001
0.092	-0.00985
0.09205	-0.00695
0.09205	-0.00792
0.09211	-0.00727
0.09211	-0.00566
0.09211	-0.00711
0.09217	-0.00792
0.09217	-0.00582
0.09222	-0.00759
0.09222	-0.00534
0.09222	-0.00824
0.09228	-0.00614
0.09228	-0.01065
0.09228	-0.00518
0.09233	-0.00437
0.09233	-0.00614
0.09239	-0.00969
0.09239	-0.01049
0.09239	-0.00647
0.09244	-0.00502
0.09244	-0.00759
0.0925	-0.00518
0.0925	-0.00953
0.09255	-0.01098
0.09255	-0.00389
0.09261	-0.01017
0.09261	-0.00792
0.09261	-0.00631
0.09267	-0.00727
0.09267	-0.00824
0.09272	-0.01065
0.09272	-0.00775
0.09278	-0.00824
0.09278	-0.0092
0.09278	-0.00614
0.09283	-0.00872
0.09283	-0.00759
0.09289	-0.01017
0.09289	-0.00453
0.09289	-0.00614
0.09294	-0.00937
0.09294	-0.00759
0.093	-0.00582
0.093	-0.00453
0.093	-0.00614
0.09305	-0.00614
0.09305	-0.00953
0.09311	-0.00856
0.09311	-0.0055
0.09311	-0.00663
0.09317	-0.00824
0.09317	-0.00759
0.09317	-0.00904
0.09322	-0.0055
0.09322	-0.00631
0.09328	-0.00647
0.09328	-0.00824
0.09333	-0.00405
0.09333	-0.00808
0.09339	-0.00695
0.09339	-0.00711
0.09339	-0.01259
0.09344	-0.00808
0.09344	-0.00534
0.0935	-0.00856
0.0935	-0.00808
0.09355	-0.00582
0.09355	-0.00453
0.09355	-0.00534
0.09361	-0.0084
0.09361	-0.01081
0.09367	-0.00663
0.09367	-0.00953
0.09367	-0.0055
0.09372	-0.00598
0.09372	-0.00308
0.09378	-0.01114
0.09378	-0.00292
0.09383	-0.00759
0.09383	-0.00727
0.09383	-0.00937
0.09389	-0.01049
0.09389	-0.00775
0.09389	-0.00405
0.09394	-0.01226
0.09394	-0.00856
0.094	-0.00614
0.094	-0.01339
0.094	-0.01017
0.09405	-0.00631
0.09405	-0.01098
0.09411	-0.00663
0.09411	-0.00534
0.09417	-0.00647
0.09417	-0.01081
0.09422	-0.00341
0.09422	-0.01114
0.09422	-0.0092
0.09428	-0.01226
0.09428	-0.01033
0.09433	-0.00937
0.09433	-0.01114
0.09439	-0.01194
0.09439	-0.00792
0.09439	-0.01081
0.09444	-0.00969
0.09444	-0.00582
0.0945	-0.00953
0.0945	-0.00969
0.0945	-0.01178
0.09455	-0.00808
0.09455	-0.00775
0.09461	-0.0113
0.09461	-0.00985
0.09461	-0.00743
0.09467	-0.00824
0.09467	-0.00792
0.09472	-0.00888
0.09472	-0.01114
0.09472	-0.01259
0.09478	-0.00888
0.09478	-0.0113
0.09478	-0.0113
0.09483	-0.01226
0.09483	-0.01001
0.09483	-0.00647
0.09489	-0.0092
0.09489	-0.01049
0.09494	-0.00727
0.09494	-0.0121
0.095	-0.00953
0.095	-0.01017
0.09505	-0.01194
0.09505	-0.00953
0.09505	-0.01243
0.09511	-0.0113
0.09511	-0.00679
0.09517	-0.00969
0.09517	-0.01033
0.09522	-0.01001
0.09522	-0.01146
0.09522	-0.00792
0.09528	-0.00953
0.09528	-0.0121
0.09533	-0.01098
0.09533	-0.01017
0.09533	-0.00566
0.09539	-0.01017
0.09539	-0.0084
0.09544	-0.00663
0.09544	-0.00985
0.09544	-0.01146
0.0955	-0.01162
0.0955	-0.01243
0.09555	-0.01065
0.09555	-0.00904
0.09555	-0.00759
0.09561	-0.01098
0.09561	-0.01371
0.09561	-0.00792
0.09567	-0.00953
0.09567	-0.01162
0.09572	-0.01033
0.09572	-0.01033
0.09572	-0.01114
0.09578	-0.00969
0.09578	-0.00904
0.09583	-0.01065
0.09583	-0.00953
0.09589	-0.01291
0.09589	-0.01194
0.09594	-0.01098
0.09594	-0.01098
0.09594	-0.00888
0.096	-0.01307
0.096	-0.00969
0.09605	-0.01049
0.09605	-0.01098
0.09605	-0.01259
0.09611	-0.01178
0.09611	-0.00759
0.09617	-0.01001
0.09617	-0.01452
0.09622	-0.00969
0.09622	-0.01098
0.09622	-0.01081
0.09628	-0.00856
0.09628	-0.01339
0.09628	-0.00953
0.09633	-0.00614
0.09633	-0.01081
0.09639	-0.01146
0.09639	-0.01243
0.09639	-0.01194
0.09644	-0.01226
0.09644	-0.0092
0.09644	-0.00937
0.0965	-0.00759
0.0965	-0.01017
0.09655	-0.01065
0.09655	-0.00743
0.09661	-0.01339
0.09661	-0.00775
0.09667	-0.00856
0.09667	-0.00872
0.09667	-0.01114
0.09672	-0.00631
0.09672	-0.00953
0.09678	-0.0121
0.09678	-0.00969
0.09683	-0.00808
0.09683	-0.01226
0.09683	-0.00856
0.09689	-0.01049
0.09689	-0.01114
0.09694	-0.01226
0.09694	-0.01033
0.097	-0.00743
0.097	-0.00824
0.097	-0.00953
0.09705	-0.01194
0.09705	-0.01114
0.09711	-0.00727
0.09711	-0.00743
0.09711	-0.00808
0.09717	-0.00743
0.09717	-0.01146
0.09722	-0.01355
0.09722	-0.0113
0.09722	-0.01081
0.09728	-0.01243
0.09728	-0.0084
0.09728	-0.01226
0.09733	-0.01033
0.09733	-0.00937
0.09739	-0.00727
0.09739	-0.00775
0.09739	-0.01098
0.09744	-0.00792
0.09744	-0.00969
0.0975	-0.015
0.0975	-0.00759
0.09755	-0.00904
0.09755	-0.01065
0.09761	-0.00824
0.09761	-0.0092
0.09761	-0.00775
0.09767	-0.00727
0.09767	-0.00679
0.09772	-0.00792
0.09772	-0.01001
0.09778	-0.00985
0.09778	-0.01098
0.09778	-0.01114
0.09783	-0.00808
0.09783	-0.01033
0.09789	-0.01098
0.09789	-0.00792
0.09789	-0.01178
0.09794	-0.00727
0.09794	-0.01307
0.098	-0.01259
0.098	-0.01065
0.098	-0.01194
0.09805	-0.01098
0.09805	-0.01065
0.09811	-0.00888
0.09811	-0.00743
0.09811	-0.01017
0.09817	-0.00743
0.09817	-0.0084
0.09817	-0.00775
0.09822	-0.0113
0.09822	-0.01226
0.09828	-0.01307
0.09828	-0.0121
0.09833	-0.01065
0.09833	-0.00856
0.09833	-0.01243
0.09839	-0.00856
0.09839	-0.00985
0.09844	-0.00937
0.09844	-0.00985
0.0985	-0.00888
0.0985	-0.00534
0.0985	-0.00808
0.09855	-0.01243
0.09855	-0.00969
0.09861	-0.01081
0.09861	-0.00985
0.09867	-0.01259
0.09867	-0.01065
0.09867	-0.01339
0.09872	-0.01001
0.09872	-0.01065
0.09878	-0.0113
0.09878	-0.01081
0.09878	-0.00808
0.09883	-0.00727
0.09883	-0.00808
0.09889	-0.01259
0.09889	-0.01114
0.09889	-0.01404
0.09894	-0.01243
0.09894	-0.0092
0.09894	-0.00872
0.099	-0.00872
0.099	-0.00711
0.09905	-0.01114
0.09905	-0.01291
0.09911	-0.00953
0.09911	-0.00775
0.09917	-0.01114
0.09917	-0.0092
0.09917	-0.00969
0.09922	-0.00937
0.09922	-0.00663
0.09928	-0.0084
0.09928	-0.0113
0.09933	-0.00775
0.09933	-0.00824
0.09933	-0.00904
0.09939	-0.00582
0.09939	-0.01017
0.09944	-0.00985
0.09944	-0.00872
0.0995	-0.0092
0.0995	-0.0121
0.0995	-0.01404
0.09955	-0.01307
0.09955	-0.00953
0.09961	-0.00888
0.09961	-0.00711
0.09967	-0.00759
0.09967	-0.00695
0.09967	-0.00775
0.09972	-0.00824
0.09972	-0.01226
0.09972	-0.01114
0.09978	-0.0113
0.09978	-0.00872
0.09983	-0.00937
0.09983	-0.00985
0.09989	-0.00937
0.09989	-0.00985
0.09989	-0.01049
0.09994	-0.01001
0.09994	-0.01291
0.1	-0.01001
0.1	-0.00969
0.10005	-0.00695
0.10005	-0.00502
0.10011	-0.00953
0.10011	-0.0121
0.10011	-0.01098
0.10017	-0.0142
0.10017	-0.00937
0.10022	-0.0084
0.10022	-0.01114
0.10028	-0.00824
0.10028	-0.01226
0.10033	-0.01162
0.10033	-0.00872
0.10033	-0.01146
0.10039	-0.01114
0.10039	-0.01114
0.10044	-0.00598
0.10044	-0.015
0.10044	-0.01226
0.1005	-0.01065
0.1005	-0.00759
0.10055	-0.01033
0.10055	-0.01355
0.10055	-0.01339
0.10061	-0.01178
0.10061	-0.01468
0.10067	-0.01371
0.10067	-0.0142
0.10067	-0.00953
0.10072	-0.00679
0.10072	-0.00759
0.10078	-0.01065
0.10078	-0.01001
0.10083	-0.00937
0.10083	-0.00824
0.10089	-0.0113
0.10089	-0.0092
0.10089	-0.01098
0.10094	-0.00775
0.10094	-0.01001
0.101	-0.01226
0.101	-0.01146
0.10105	-0.01339
0.10105	-0.01243
0.10111	-0.00969
0.10111	-0.01098
0.10111	-0.00695
0.10117	-0.00872
0.10117	-0.00985
0.10122	-0.01081
0.10122	-0.00743
0.10128	-0.00775
0.10128	-0.00953
0.10128	-0.00937
0.10133	-0.0121
0.10133	-0.00856
0.10139	-0.01291
0.10139	-0.00953
0.10139	-0.0092
0.10144	-0.00904
0.10144	-0.01178
0.10144	-0.0092
0.1015	-0.00679
0.1015	-0.01404
0.10155	-0.01291
0.10155	-0.00937
0.10161	-0.01098
0.10161	-0.01291
0.10161	-0.00647
0.10167	-0.01098
0.10167	-0.00759
0.10172	-0.01339
0.10172	-0.00808
0.10178	-0.00759
0.10178	-0.00824
0.10183	-0.00631
0.10183	-0.0084
0.10183	-0.01371
0.10189	-0.01033
0.10189	-0.00888
0.10194	-0.00888
0.10194	-0.00679
0.102	-0.00614
0.102	-0.01033
0.102	-0.00888
0.10205	-0.01323
0.10205	-0.00904
0.10211	-0.01001
0.10211	-0.0084
0.10211	-0.01081
0.10217	-0.00695
0.10217	-0.01098
0.10222	-0.00808
0.10222	-0.00695
0.10222	-0.01243
0.10228	-0.00888
0.10228	-0.01081
0.10233	-0.01081
0.10233	-0.0055
0.10233	-0.00759
0.10239	-0.01081
0.10239	-0.00743
0.10244	-0.00872
0.10244	-0.01065
0.10244	-0.00775
0.1025	-0.00775
0.1025	-0.00663
0.10255	-0.00792
0.10255	-0.00711
0.10261	-0.00759
0.10261	-0.00856
0.10261	-0.01049
0.10267	-0.00937
0.10267	-0.01081
0.10272	-0.00759
0.10272	-0.00663
0.10278	-0.00502
0.10278	-0.01194
0.10278	-0.01371
0.10283	-0.00727
0.10283	-0.00792
0.10289	-0.00937
0.10289	-0.01098
0.10289	-0.00711
0.10294	-0.00502
0.10294	-0.00711
0.103	-0.01098
0.103	-0.01081
0.10305	-0.01339
0.10305	-0.01549
0.10305	-0.0092
0.10311	-0.00808
0.10311	-0.00937
0.10311	-0.0084
0.10317	-0.00711
0.10317	-0.00679
0.10322	-0.01226
0.10322	-0.01049
0.10322	-0.00711
0.10328	-0.01243
0.10328	-0.01049
0.10333	-0.00775
0.10333	-0.01001
0.10339	-0.00759
0.10339	-0.01098
0.10339	-0.01114
0.10344	-0.01371
0.10344	-0.00792
0.1035	-0.01178
0.1035	-0.01049
0.10355	-0.01081
0.10355	-0.00647
0.10355	-0.00856
0.10361	-0.01291
0.10361	-0.01049
0.10367	-0.0113
0.10367	-0.01081
0.10372	-0.01243
0.10372	-0.01081
0.10372	-0.01049
0.10378	-0.01017
0.10378	-0.00904
0.10383	-0.01532
0.10383	-0.00953
0.10383	-0.00888
0.10389	-0.01049
0.10389	-0.01017
0.10394	-0.0121
0.10394	-0.00856
0.10394	-0.01017
0.104	-0.00711
0.104	-0.00985
0.104	-0.01049
0.10405	-0.01323
0.10405	-0.01081
0.10411	-0.01355
0.10411	-0.0092
0.10417	-0.00679
0.10417	-0.00808
0.10417	-0.01178
0.10422	-0.01194
0.10422	-0.00937
0.10428	-0.01033
0.10428	-0.00969
0.10433	-0.01098
0.10433	-0.00775
0.10433	-0.00985
0.10439	-0.01323
0.10439	-0.01049
0.10444	-0.01452
0.10444	-0.00775
0.1045	-0.00856
0.1045	-0.00904
0.1045	-0.00759
0.10455	-0.00727
0.10455	-0.01001
0.10461	-0.01323
0.10461	-0.00856
0.10461	-0.00824
0.10467	-0.00969
0.10467	-0.01194
0.10472	-0.01243
0.10472	-0.00856
0.10472	-0.01065
0.10478	-0.00679
0.10478	-0.00405
0.10478	-0.01114
0.10483	-0.00647
0.10483	-0.00614
0.10483	-0.00792
0.10489	-0.00985
0.10489	-0.01178
0.10494	-0.01033
0.10494	-0.01355
0.105	-0.01404
0.105	-0.00663
0.105	-0.00872
0.10505	-0.0121
0.10505	-0.01194
0.10511	-0.00486
0.10511	-0.00711
0.10517	-0.01259
0.10517	-0.00937
0.10517	-0.00953
0.10522	-0.01226
0.10522	-0.00711
0.10528	-0.01291
0.10528	-0.01194
0.10528	-0.01098
0.10533	-0.00985
0.10533	-0.00663
0.10539	-0.01307
0.10539	-0.00937
0.10539	-0.01017
0.10544	-0.01098
0.10544	-0.01226
0.1055	-0.01452
0.1055	-0.01162
0.1055	-0.01162
0.10555	-0.01098
0.10555	-0.01098
0.10561	-0.01065
0.10561	-0.00679
0.10561	-0.0084
0.10567	-0.00904
0.10567	-0.01371
0.10567	-0.00775
0.10572	-0.00888
0.10572	-0.01178
0.10578	-0.01033
0.10578	-0.00872
0.10583	-0.01081
0.10583	-0.00727
0.10583	-0.00937
0.10589	-0.00888
0.10589	-0.0121
0.10594	-0.015
0.10594	-0.01114
0.106	-0.00808
0.106	-0.00937
0.106	-0.01291
0.10605	-0.01017
0.10605	-0.01114
0.10611	-0.00647
0.10611	-0.01162
0.10611	-0.00872
0.10617	-0.00888
0.10617	-0.00985
0.10622	-0.00953
0.10622	-0.00775
0.10622	-0.00759
0.10628	-0.00518
0.10628	-0.00969
0.10633	-0.01275
0.10633	-0.0084
0.10633	-0.00695
0.10639	-0.01323
0.10639	-0.0084
0.10639	-0.00663
0.10644	-0.01033
0.10644	-0.01001
0.1065	-0.00969
0.1065	-0.00614
0.1065	-0.01017
0.10655	-0.01146
0.10655	-0.01017
0.10661	-0.0113
0.10661	-0.00824
0.10667	-0.00872
0.10667	-0.0121
0.10667	-0.00872
0.10672	-0.00792
0.10672	-0.00775
0.10678	-0.01114
0.10678	-0.01001
0.10683	-0.01162
0.10683	-0.00759
0.10683	-0.01162
0.10689	-0.00679
0.10689	-0.00904
0.10694	-0.01339
0.10694	-0.00743
0.10694	-0.0084
0.107	-0.01001
0.107	-0.01307
0.10705	-0.01001
0.10705	-0.00872
0.10705	-0.00985
0.10711	-0.01275
0.10711	-0.01516
0.10717	-0.01178
0.10717	-0.01178
0.10717	-0.00872
0.10722	-0.01597
0.10722	-0.01146
0.10728	-0.01468
0.10728	-0.00856
0.10728	-0.00824
0.10733	-0.00598
0.10733	-0.01033
0.10733	-0.01194
0.10739	-0.01178
0.10739	-0.01243
0.10744	-0.01162
0.10744	-0.01226
0.1075	-0.00953
0.1075	-0.01226
0.1075	-0.01194
0.10755	-0.01259
0.10755	-0.01033
0.10761	-0.00888
0.10761	-0.00969
0.10767	-0.0092
0.10767	-0.00775
0.10767	-0.00759
0.10772	-0.01114
0.10772	-0.01001
0.10778	-0.01146
0.10778	-0.01387
0.10778	-0.00695
0.10783	-0.0084
0.10783	-0.01033
0.10789	-0.01162
0.10789	-0.0113
0.10794	-0.0113
0.10794	-0.01404
0.10794	-0.01355
0.108	-0.01114
0.108	-0.00937
0.108	-0.00937
0.10805	-0.00937
0.10805	-0.01387
0.10811	-0.00663
0.10811	-0.00904
0.10811	-0.00759
0.10817	-0.01307
0.10817	-0.01065
0.10817	-0.00985
0.10822	-0.0113
0.10822	-0.01275
0.10828	-0.00824
0.10828	-0.00631
0.10833	-0.00759
0.10833	-0.00808
0.10833	-0.01178
0.10839	-0.01049
0.10839	-0.01726
0.10844	-0.00888
0.10844	-0.00872
0.1085	-0.01146
0.1085	-0.0084
0.1085	-0.00953
0.10855	-0.00904
0.10855	-0.01017
0.10861	-0.01065
0.10861	-0.01017
0.10867	-0.00824
0.10867	-0.01387
0.10867	-0.01065
0.10872	-0.01178
0.10872	-0.0113
0.10878	-0.01065
0.10878	-0.00792
0.10878	-0.01146
0.10883	-0.0142
0.10883	-0.01001
0.10889	-0.00856
0.10889	-0.01114
0.10889	-0.0121
0.10894	-0.01114
0.10894	-0.01114
0.10894	-0.00743
0.109	-0.00711
0.109	-0.01243
0.10905	-0.01001
0.10905	-0.00759
0.10911	-0.01001
0.10911	-0.01259
0.10917	-0.00792
0.10917	-0.00582
0.10917	-0.01114
0.10922	-0.01323
0.10922	-0.00808
0.10928	-0.00566
0.10928	-0.01049
0.10933	-0.00824
0.10933	-0.0084
0.10933	-0.0055
0.10939	-0.01194
0.10939	-0.0121
0.10944	-0.00711
0.10944	-0.00727
0.1095	-0.00953
0.1095	-0.01098
0.1095	-0.01114
0.10955	-0.00969
0.10955	-0.0084
0.10961	-0.01323
0.10961	-0.0092
0.10961	-0.01243
0.10967	-0.01355
0.10967	-0.01243
0.10972	-0.00953
0.10972	-0.00743
0.10972	-0.00743
0.10978	-0.01162
0.10978	-0.01162
0.10983	-0.01259
0.10983	-0.00743
0.10983	-0.01049
0.10989	-0.01033
0.10989	-0.00856
0.10994	-0.01017
0.10994	-0.0092
0.11	-0.00711
0.11	-0.00888
0.11	-0.00872
0.11005	-0.00904
0.11005	-0.01049
0.11011	-0.00953
0.11011	-0.01114
0.11017	-0.01436
0.11017	-0.0092
0.11017	-0.0113
0.11022	-0.00598
0.11022	-0.0121
0.11028	-0.01098
0.11028	-0.00647
0.11033	-0.00985
0.11033	-0.01178
0.11033	-0.01355
0.11039	-0.00904
0.11039	-0.00775
0.11044	-0.00759
0.11044	-0.00808
0.1105	-0.01838
0.1105	-0.01387
0.1105	-0.00953
0.11055	-0.00695
0.11055	-0.00904
0.11061	-0.00985
0.11061	-0.00985
0.11061	-0.01162
0.11067	-0.0092
0.11067	-0.00969
0.11067	-0.01355
0.11072	-0.01146
0.11072	-0.01307
0.11078	-0.01081
0.11078	-0.00824
0.11083	-0.01387
0.11083	-0.00953
0.11089	-0.01114
0.11089	-0.00775
0.11089	-0.01049
0.11094	-0.00953
0.11094	-0.0092
0.111	-0.00566
0.111	-0.0084
0.11105	-0.01162
0.11105	-0.00904
0.11111	-0.01098
0.11111	-0.01081
0.11111	-0.0113
0.11117	-0.00518
0.11117	-0.00856
0.11122	-0.01146
0.11122	-0.00759
0.11122	-0.00824
0.11128	-0.00953
0.11128	-0.01275
0.11133	-0.00614
0.11133	-0.01243
0.11139	-0.01323
0.11139	-0.01243
0.11139	-0.0121
0.11144	-0.00937
0.11144	-0.01001
0.11144	-0.00792
0.1115	-0.01049
0.1115	-0.01114
0.11155	-0.01484
0.11155	-0.01291
0.11161	-0.01243
0.11161	-0.01436
0.11161	-0.01226
0.11167	-0.01194
0.11167	-0.01565
0.11172	-0.01065
0.11172	-0.01065
0.11178	-0.01081
0.11178	-0.01001
0.11183	-0.00727
0.11183	-0.01162
0.11183	-0.00759
0.11189	-0.00872
0.11189	-0.00792
0.11194	-0.00969
0.11194	-0.00888
0.112	-0.01146
0.112	-0.01178
0.112	-0.01259
0.11205	-0.00824
0.11205	-0.0113
0.11211	-0.01017
0.11211	-0.01098
0.11211	-0.0092
0.11217	-0.00824
0.11217	-0.00985
0.11222	-0.0092
0.11222	-0.00824
0.11222	-0.01065
0.11228	-0.00888
0.11228	-0.01291
0.11233	-0.01243
0.11233	-0.00937
0.11233	-0.01001
0.11239	-0.00824
0.11239	-0.01114
0.11244	-0.01001
0.11244	-0.00727
0.11244	-0.00566
0.1125	-0.01259
0.1125	-0.01033
0.11255	-0.01178
0.11255	-0.00937
0.11261	-0.00695
0.11261	-0.01114
0.11261	-0.00824
0.11267	-0.01146
0.11267	-0.01033
0.11272	-0.0092
0.11272	-0.00727
0.11272	-0.00421
0.11278	-0.01049
0.11278	-0.01323
0.11283	-0.00985
0.11283	-0.01001
0.11289	-0.01146
0.11289	-0.00969
0.11289	-0.0121
0.11294	-0.00872
0.11294	-0.01307
0.113	-0.0121
0.113	-0.01371
0.113	-0.00937
0.11305	-0.00985
0.11305	-0.00808
0.11305	-0.01033
0.11311	-0.01387
0.11311	-0.01194
0.11317	-0.00759
0.11317	-0.01178
0.11317	-0.00824
0.11322	-0.01387
0.11322	-0.00775
0.11328	-0.00953
0.11328	-0.00502
0.11328	-0.01033
0.11333	-0.01387
0.11333	-0.00663
0.11339	-0.00759
0.11339	-0.00904
0.11344	-0.00856
0.11344	-0.00743
0.11344	-0.00904
0.1135	-0.00695
0.1135	-0.01194
0.11355	-0.00937
0.11355	-0.01452
0.11361	-0.00985
0.11361	-0.00856
0.11361	-0.00759
0.11367	-0.01081
0.11367	-0.0113
0.11372	-0.01452
0.11372	-0.0084
0.11372	-0.00743
0.11378	-0.01146
0.11378	-0.00614
0.11383	-0.01307
0.11383	-0.01065
0.11383	-0.00969
0.11389	-0.01114
0.11389	-0.01194
0.11394	-0.01162
0.11394	-0.00824
0.11394	-0.0092
0.114	-0.01049
0.114	-0.00969
0.114	-0.01114
0.11405	-0.01226
0.11405	-0.00759
0.11411	-0.00937
0.11411	-0.01001
0.11417	-0.01339
0.11417	-0.01098
0.11417	-0.00775
0.11422	-0.00792
0.11422	-0.00953
0.11428	-0.00888
0.11428	-0.01098
0.11433	-0.01146
0.11433	-0.0092
0.11433	-0.00808
0.11439	-0.01065
0.11439	-0.00647
0.11444	-0.00711
0.11444	-0.01033
0.11444	-0.01081
0.1145	-0.01001
0.1145	-0.00647
0.11455	-0.00743
0.11455	-0.00486
0.11461	-0.00695
0.11461	-0.01226
0.11461	-0.01226
0.11467	-0.00792
0.11467	-0.00888
0.11467	-0.01387
0.11472	-0.01404
0.11472	-0.01162
0.11478	-0.00953
0.11478	-0.01162
0.11478	-0.0084
0.11483	-0.00969
0.11483	-0.01387
0.11489	-0.01162
0.11489	-0.00985
0.11489	-0.00953
0.11494	-0.00872
0.11494	-0.00856
0.115	-0.01017
0.115	-0.01226
0.11505	-0.01049
0.11505	-0.00695
0.11505	-0.00695
0.11511	-0.00775
0.11511	-0.00872
0.11517	-0.01355
0.11517	-0.01226
0.11522	-0.00937
0.11522	-0.00888
0.11522	-0.00679
0.11528	-0.00582
0.11528	-0.01001
0.11533	-0.00969
0.11533	-0.0092
0.11533	-0.01065
0.11539	-0.00647
0.11539	-0.01081
0.11544	-0.01371
0.11544	-0.0084
0.11544	-0.00953
0.1155	-0.01162
0.1155	-0.01259
0.1155	-0.00904
0.11555	-0.01259
0.11555	-0.00824
0.11561	-0.00792
0.11561	-0.01436
0.11561	-0.0121
0.11567	-0.01114
0.11567	-0.0092
0.11572	-0.00808
0.11572	-0.01162
0.11578	-0.00953
0.11578	-0.01307
0.11578	-0.00775
0.11583	-0.01033
0.11583	-0.01065
0.11589	-0.01017
0.11589	-0.01001
0.11594	-0.00711
0.11594	-0.01081
0.11594	-0.00824
0.116	-0.00743
0.116	-0.01017
0.11605	-0.0084
0.11605	-0.01065
0.11605	-0.0092
0.11611	-0.00969
0.11611	-0.00679
0.11617	-0.01033
0.11617	-0.01049
0.11617	-0.0142
0.11622	-0.00759
0.11622	-0.00824
0.11628	-0.0084
0.11628	-0.00937
0.11628	-0.00856
0.11633	-0.0121
0.11633	-0.00969
0.11639	-0.01098
0.11639	-0.01081
0.11639	-0.0084
0.11644	-0.01017
0.11644	-0.00872
0.11644	-0.01081
0.1165	-0.01162
0.1165	-0.0084
0.11655	-0.01275
0.11655	-0.00647
0.11661	-0.00888
0.11661	-0.01001
0.11661	-0.00872
0.11667	-0.00679
0.11667	-0.00775
0.11672	-0.01178
0.11672	-0.01178
0.11678	-0.01597
0.11678	-0.00872
0.11678	-0.0055
0.11683	-0.01146
0.11683	-0.00695
0.11689	-0.00695
0.11689	-0.01387
0.11694	-0.00969
0.11694	-0.00985
0.11694	-0.01194
0.117	-0.01291
0.117	-0.0113
0.11705	-0.01114
0.11705	-0.00872
0.11705	-0.0121
0.11711	-0.00743
0.11711	-0.0084
0.11717	-0.01017
0.11717	-0.0092
0.11717	-0.0055
0.11722	-0.0084
0.11722	-0.00598
0.11722	-0.00969
0.11728	-0.01081
0.11728	-0.00775
0.11728	-0.0092
0.11733	-0.00937
0.11733	-0.00663
0.11739	-0.00775
0.11739	-0.00856
0.11744	-0.0113
0.11744	-0.0026
0.1175	-0.00663
0.1175	-0.00325
0.1175	-0.00953
0.11755	-0.01114
0.11755	-0.00598
0.11761	-0.00953
0.11761	-0.01178
0.11767	-0.00727
0.11767	-0.00985
0.11767	-0.01194
0.11772	-0.00872
0.11772	-0.01178
0.11778	-0.01243
0.11778	-0.01162
0.11778	-0.00985
0.11783	-0.0113
0.11783	-0.01146
0.11789	-0.01226
0.11789	-0.01162
0.11789	-0.00727
0.11794	-0.00985
0.11794	-0.00937
0.118	-0.01001
0.118	-0.00872
0.118	-0.00985
0.11805	-0.00711
0.11805	-0.00743
0.11805	-0.00888
0.11811	-0.00727
0.11811	-0.00888
0.11817	-0.00808
0.11817	-0.00711
0.11822	-0.00872
0.11822	-0.00711
0.11822	-0.00985
0.11828	-0.00856
0.11828	-0.01146
0.11833	-0.0113
0.11833	-0.00904
0.11839	-0.01065
0.11839	-0.01275
0.11839	-0.00985
0.11844	-0.00856
0.11844	-0.01001
0.1185	-0.00856
0.1185	-0.00969
0.11855	-0.00904
0.11855	-0.01162
0.11855	-0.01017
0.11861	-0.01146
0.11861	-0.01243
0.11867	-0.00743
0.11867	-0.00663
0.11867	-0.00518
0.11872	-0.01017
0.11872	-0.01001
0.11878	-0.00888
0.11878	-0.01098
0.11878	-0.00453
0.11883	-0.01114
0.11883	-0.00727
0.11889	-0.00969
0.11889	-0.00647
0.11889	-0.00711
0.11894	-0.00856
0.11894	-0.00663
0.119	-0.01065
0.119	-0.0055
0.11905	-0.01339
0.11905	-0.0084
0.11905	-0.00808
0.11911	-0.0092
0.11911	-0.00598
0.11917	-0.00743
0.11917	-0.01146
0.11922	-0.0092
0.11922	-0.00647
0.11922	-0.00518
0.11928	-0.01178
0.11928	-0.00872
0.11933	-0.00518
0.11933	-0.00953
0.11939	-0.01017
0.11939	-0.00437
0.11939	-0.00727
0.11944	-0.01033
0.11944	-0.00808
0.1195	-0.00872
0.1195	-0.00308
0.11955	-0.00792
0.11955	-0.01098
0.11955	-0.00711
0.11961	-0.00775
0.11961	-0.00953
0.11967	-0.00792
0.11967	-0.00759
0.11967	-0.00792
0.11972	-0.00856
0.11972	-0.00518
0.11972	-0.00969
0.11978	-0.00566
0.11978	-0.00598
0.11983	-0.0113
0.11983	-0.00566
0.11989	-0.0084
0.11989	-0.00727
0.11989	-0.0092
0.11994	-0.00566
0.11994	-0.00808
0.12	-0.00663
0.12	-0.01001
0.12005	-0.01065
0.12005	-0.00582
0.12011	-0.00534
0.12011	-0.00969
0.12011	-0.0121
0.12017	-0.01033
0.12017	-0.00937
0.12022	-0.01146
0.12022	-0.00856
0.12028	-0.00502
0.12028	-0.00872
0.12028	-0.01001
0.12033	-0.00695
0.12033	-0.01001
0.12039	-0.0047
0.12039	-0.00937
0.12039	-0.01081
0.12044	-0.01065
0.12044	-0.00727
0.1205	-0.00711
0.1205	-0.00598
0.12055	-0.00808
0.12055	-0.00904
0.12055	-0.01033
0.12061	-0.01081
0.12061	-0.00631
0.12061	-0.01049
0.12067	-0.01114
0.12067	-0.01275
0.12072	-0.0092
0.12072	-0.0055
0.12078	-0.00711
0.12078	-0.01162
0.12078	-0.01291
0.12083	-0.01065
0.12083	-0.01194
0.12089	-0.00614
0.12089	-0.01065
0.12094	-0.01114
0.12094	-0.0113
0.121	-0.0121
0.121	-0.00743
0.121	-0.00679
0.12105	-0.01355
0.12105	-0.00759
0.12111	-0.00437
0.12111	-0.00421
0.12117	-0.00856
0.12117	-0.00953
0.12117	-0.0084
0.12122	-0.00518
0.12122	-0.01114
0.12128	-0.01065
0.12128	-0.00647
0.12133	-0.01001
0.12133	-0.00679
0.12133	-0.00792
0.12139	-0.00872
0.12139	-0.00695
0.12144	-0.00759
0.12144	-0.0092
0.12144	-0.00985
0.1215	-0.00888
0.1215	-0.00647
0.1215	-0.00663
0.12155	-0.0055
0.12155	-0.00985
0.12161	-0.01226
0.12161	-0.0092
0.12167	-0.00631
0.12167	-0.00775
0.12172	-0.00969
0.12172	-0.01098
0.12172	-0.00953
0.12178	-0.0113
0.12178	-0.00679
0.12183	-0.00824
0.12183	-0.00937
0.12189	-0.00856
0.12189	-0.01081
0.12194	-0.01017
0.12194	-0.01194
0.12194	-0.00663
0.122	-0.0047
0.122	-0.01017
0.12205	-0.00647
0.12205	-0.01226
0.12205	-0.01081
0.12211	-0.00872
0.12211	-0.00727
0.12217	-0.00775
0.12217	-0.00969
0.12217	-0.01323
0.12222	-0.01098
0.12222	-0.00904
0.12228	-0.00695
0.12228	-0.01001
0.12228	-0.0092
0.12233	-0.00904
0.12233	-0.00904
0.12239	-0.0084
0.12239	-0.01162
0.12239	-0.00775
0.12244	-0.00679
0.12244	-0.00872
0.1225	-0.01049
0.1225	-0.00598
0.12255	-0.0084
0.12255	-0.01387
0.12255	-0.01243
0.12261	-0.00759
0.12261	-0.00792
0.12267	-0.00872
0.12267	-0.00969
0.12272	-0.00872
0.12272	-0.00856
0.12272	-0.00759
0.12278	-0.01017
0.12278	-0.00598
0.12283	-0.01017
0.12283	-0.00647
0.12283	-0.00808
0.12289	-0.00985
0.12289	-0.00566
0.12294	-0.0092
0.12294	-0.00759
0.12294	-0.01484
0.123	-0.00727
0.123	-0.00808
0.12305	-0.00792
0.12305	-0.00663
0.12305	-0.00727
0.12311	-0.0084
0.12311	-0.0084
0.12311	-0.00824
0.12317	-0.00888
0.12317	-0.01033
0.12322	-0.00373
0.12322	-0.01081
0.12322	-0.00904
0.12328	-0.00953
0.12328	-0.00631
0.12333	-0.00888
0.12333	-0.00679
0.12339	-0.00663
0.12339	-0.00614
0.12339	-0.00953
0.12344	-0.00985
0.12344	-0.00888
0.1235	-0.01114
0.1235	-0.01049
0.12355	-0.01162
0.12355	-0.00872
0.12355	-0.01162
0.12361	-0.01178
0.12361	-0.01371
0.12367	-0.00953
0.12367	-0.00695
0.12367	-0.01178
0.12372	-0.00775
0.12372	-0.00695
0.12378	-0.01081
0.12378	-0.01001
0.12383	-0.00663
0.12383	-0.00711
0.12383	-0.01146
0.12389	-0.00904
0.12389	-0.00695
0.12389	-0.00518
0.12389	-0.00985
0.12389	-0.00953
0.12389	-0.00727
0.12389	-0.00373
0.12389	-0.00743
0.12389	-0.00985
0.12389	-0.01387
0.12389	-0.01017
0.12389	-0.01355
